Frequency (Hz),Real Part,Imaginary Part
1600000000.0,-0.789262,0.521193
1607000000.0,-0.767044,0.555614
1614000000.0,-0.742913,0.58637
1621000000.0,-0.713931,0.617267
1628000000.0,-0.678708,0.658037
1635000000.0,-0.648768,0.688083
1642000000.0,-0.605242,0.717106
1649000000.0,-0.566111,0.74291
1656000000.0,-0.533178,0.768396
1663000000.0,-0.455748,0.809664
1670000000.0,-0.471402,0.810668
1677000000.0,-0.419067,0.83192
1684000000.0,-0.378591,0.853887
1691000000.0,-0.335267,0.873886
1698000000.0,-0.294618,0.885449
1705000000.0,-0.248752,0.896569
1712000000.0,-0.215225,0.906189
1719000000.0,-0.170826,0.91903
1726000000.0,-0.189924,0.915899
1733000000.0,-0.07649,0.922498
1740000000.0,-0.037245,0.925541
1747000000.0,0.006021,0.921794
1754000000.0,0.048428,0.916723
1761000000.0,0.086251,0.908212
1768000000.0,0.129732,0.902223
1775000000.0,0.169987,0.891993
1782000000.0,0.212614,0.87937
1789000000.0,0.253578,0.867828
1796000000.0,0.291661,0.851141
1803000000.0,0.334022,0.833
1810000000.0,0.373021,0.817883
1817000000.0,0.410458,0.797085
1824000000.0,0.450202,0.782101
1831000000.0,0.492422,0.747364
1838000000.0,0.513371,0.725044
1845000000.0,0.548279,0.69275
1852000000.0,0.568033,0.664409
1859000000.0,0.597294,0.637441
1866000000.0,0.628283,0.610433
1873000000.0,0.65673,0.56888
1880000000.0,0.687189,0.534541
1887000000.0,0.711324,0.495187
1894000000.0,0.735255,0.457946
1901000000.0,0.755432,0.421645
1908000000.0,0.771364,0.367728
1915000000.0,0.777517,0.338317
1922000000.0,0.791347,0.293195
1929000000.0,0.799316,0.254921
1936000000.0,0.809727,0.210352
1943000000.0,0.802177,0.231915
1950000000.0,0.819661,0.129468
1957000000.0,0.817903,0.077266
1964000000.0,0.80911,0.041436
1971000000.0,0.799895,-0.009904
1978000000.0,0.795767,-0.022959
1985000000.0,0.775309,-0.096912
1992000000.0,0.760998,-0.12684
1999000000.0,0.737853,-0.174073
2006000000.0,0.715639,-0.208538
2013000000.0,0.693452,-0.238216
2020000000.0,0.663602,-0.26264
2027000000.0,0.637345,-0.286042
2034000000.0,0.605012,-0.308557
2041000000.0,0.575597,-0.323804
2048000000.0,0.548647,-0.336142
2055000000.0,0.523525,-0.342738
2062000000.0,0.495803,-0.354473
2069000000.0,0.473876,-0.360447
2076000000.0,0.456333,-0.360624
2083000000.0,0.437062,-0.364071
2090000000.0,0.426447,-0.363832
2097000000.0,0.417427,-0.366971
2104000000.0,0.411854,-0.372632
2111000000.0,0.408308,-0.377004
2118000000.0,0.40567,-0.389944
2125000000.0,0.403229,-0.404661
2132000000.0,0.394801,-0.420947
2139000000.0,0.388711,-0.442559
2146000000.0,0.368664,-0.466518
2153000000.0,0.352106,-0.488131
2160000000.0,0.324661,-0.517088
2167000000.0,0.298921,-0.536238
2174000000.0,0.266958,-0.549176
2181000000.0,0.226352,-0.568968
2188000000.0,0.189818,-0.578228
2195000000.0,0.155327,-0.581454
2202000000.0,0.1142,-0.580498
2209000000.0,0.079173,-0.571253
2216000000.0,0.046059,-0.560159
2223000000.0,0.014658,-0.542553
2230000000.0,-0.009541,-0.523837
2237000000.0,-0.038295,-0.50383
2244000000.0,-0.05206,-0.479111
2251000000.0,-0.070692,-0.453516
2258000000.0,-0.070894,-0.42726
2265000000.0,-0.077472,-0.399349
2272000000.0,-0.074228,-0.374148
2279000000.0,-0.069753,-0.354856
2286000000.0,-0.065135,-0.337907
2293000000.0,-0.052282,-0.329824
2300000000.0,-0.043102,-0.321787
2307000000.0,-0.027655,-0.320739
2314000000.0,-0.016613,-0.324942
2321000000.0,0.009466,-0.332931
2328000000.0,0.025266,-0.343919
2335000000.0,0.041323,-0.365494
2342000000.0,0.053088,-0.393479
2349000000.0,0.060239,-0.426602
2356000000.0,0.053193,-0.466214
2363000000.0,0.038976,-0.502239
2370000000.0,0.014817,-0.541459
2377000000.0,-0.01787,-0.576322
2384000000.0,-0.014882,-0.616349
2391000000.0,-0.095134,-0.639121
2398000000.0,-0.16008,-0.649819
2405000000.0,-0.214376,-0.663492
2412000000.0,-0.274636,-0.668044
2419000000.0,-0.323224,-0.662983
2426000000.0,-0.385103,-0.644642
2433000000.0,-0.441132,-0.621634
2440000000.0,-0.484981,-0.604284
2447000000.0,-0.531712,-0.575808
2454000000.0,-0.571701,-0.541407
2461000000.0,-0.612678,-0.500295
2468000000.0,-0.645984,-0.470848
2475000000.0,-0.679784,-0.426255
2482000000.0,-0.701035,-0.378444
2489000000.0,-0.726047,-0.327983
2496000000.0,-0.745523,-0.284103
2503000000.0,-0.760324,-0.246526
2510000000.0,-0.766397,-0.202259
2517000000.0,-0.776419,-0.153692
2524000000.0,-0.779108,-0.104693
2531000000.0,-0.780439,-0.061413
2538000000.0,-0.77933,-0.012693
2545000000.0,-0.776004,0.040984
2552000000.0,-0.766833,0.081816
2559000000.0,-0.755615,0.128879
2566000000.0,-0.741108,0.174031
2573000000.0,-0.72081,0.220163
2580000000.0,-0.694884,0.26055
2587000000.0,-0.669112,0.2966
2594000000.0,-0.637432,0.340986
2601000000.0,-0.603996,0.370357
2608000000.0,-0.563383,0.401858
2615000000.0,-0.532045,0.412619
2622000000.0,-0.483979,0.432462
2629000000.0,-0.439823,0.445639
2636000000.0,-0.398425,0.454392
2643000000.0,-0.359432,0.455366
2650000000.0,-0.333335,0.442131
2657000000.0,-0.297916,0.438467
2664000000.0,-0.276628,0.427178
2671000000.0,-0.251547,0.413281
2678000000.0,-0.232375,0.402307
2685000000.0,-0.223961,0.391379
2692000000.0,-0.211007,0.378168
2699000000.0,-0.208436,0.368937
2706000000.0,-0.212132,0.362335
2713000000.0,-0.216407,0.357885
2720000000.0,-0.203494,0.365886
2727000000.0,-0.231011,0.357339
2734000000.0,-0.240436,0.358486
2741000000.0,-0.238742,0.368041
2748000000.0,-0.241222,0.378221
2755000000.0,-0.241866,0.393387
2762000000.0,-0.241873,0.409769
2769000000.0,-0.229808,0.431203
2776000000.0,-0.222327,0.447869
2783000000.0,-0.19815,0.477859
2790000000.0,-0.181471,0.497091
2797000000.0,-0.167925,0.518667
2804000000.0,-0.151977,0.537992
2811000000.0,-0.123576,0.560478
2818000000.0,-0.093058,0.575898
2825000000.0,-0.072449,0.596167
2832000000.0,-0.041536,0.608625
2839000000.0,-0.014968,0.617547
2846000000.0,0.076817,0.610792
2853000000.0,0.050425,0.62116
2860000000.0,0.07492,0.616608
2867000000.0,0.11178,0.612777
2874000000.0,0.218451,0.579255
2881000000.0,0.182727,0.595495
2888000000.0,0.201371,0.585222
2895000000.0,0.234132,0.572649
2902000000.0,0.259484,0.559708
2909000000.0,0.285848,0.544921
2916000000.0,0.311787,0.525689
2923000000.0,0.338187,0.50617
2930000000.0,0.356818,0.493644
2937000000.0,0.38132,0.469191
2944000000.0,0.399682,0.450165
2951000000.0,0.408417,0.436578
2958000000.0,0.427746,0.415861
2965000000.0,0.441503,0.398065
2972000000.0,0.45458,0.380848
2979000000.0,0.467431,0.36063
2986000000.0,0.485556,0.334543
2993000000.0,0.493973,0.310743
3000000000.0,0.510593,0.283528
