Frequency (Hz),Real Part,Imaginary Part
1600000000.0,-0.785045,0.522326
1607000000.0,-0.755374,0.565954
1614000000.0,-0.735811,0.593334
1621000000.0,-0.706385,0.622497
1628000000.0,-0.670792,0.660972
1635000000.0,-0.635119,0.693168
1642000000.0,-0.599597,0.719595
1649000000.0,-0.566352,0.746228
1656000000.0,-0.494919,0.789652
1663000000.0,-0.48868,0.791029
1670000000.0,-0.449699,0.817002
1677000000.0,-0.415745,0.833299
1684000000.0,-0.352219,0.855652
1691000000.0,-0.324189,0.869322
1698000000.0,-0.283037,0.884601
1705000000.0,-0.239584,0.899157
1712000000.0,-0.197122,0.908127
1719000000.0,-0.157876,0.914751
1726000000.0,-0.11839,0.920274
1733000000.0,-0.066074,0.923489
1740000000.0,-0.024286,0.923513
1747000000.0,0.016222,0.920858
1754000000.0,0.065058,0.914593
1761000000.0,0.101718,0.904762
1768000000.0,0.153767,0.893914
1775000000.0,0.194239,0.881335
1782000000.0,0.229931,0.871042
1789000000.0,0.268382,0.855975
1796000000.0,0.311698,0.843594
1803000000.0,0.346969,0.82561
1810000000.0,0.389505,0.800772
1817000000.0,0.428216,0.780879
1824000000.0,0.45877,0.765415
1831000000.0,0.497324,0.730643
1838000000.0,0.531038,0.7036
1845000000.0,0.497542,0.727919
1852000000.0,0.582956,0.653776
1859000000.0,0.610219,0.604359
1866000000.0,0.631999,0.585187
1873000000.0,0.664987,0.53985
1880000000.0,0.697655,0.488663
1887000000.0,0.712634,0.459274
1894000000.0,0.736737,0.42012
1901000000.0,0.749079,0.385779
1908000000.0,0.757973,0.335302
1915000000.0,0.765025,0.295691
1922000000.0,0.772161,0.253227
1929000000.0,0.78425,0.213948
1936000000.0,0.781966,0.170063
1943000000.0,0.781678,0.128246
1950000000.0,0.778227,0.082539
1957000000.0,0.769975,0.014531
1964000000.0,0.75785,-0.0047
1971000000.0,0.740469,-0.040814
1978000000.0,0.722617,-0.072154
1985000000.0,0.704111,-0.105891
1992000000.0,0.681018,-0.13799
1999000000.0,0.657004,-0.161847
2006000000.0,0.633299,-0.183376
2013000000.0,0.605583,-0.205937
2020000000.0,0.578094,-0.218567
2027000000.0,0.554336,-0.226984
2034000000.0,0.535583,-0.229862
2041000000.0,0.518471,-0.232746
2048000000.0,0.50326,-0.237679
2055000000.0,0.495074,-0.236609
2062000000.0,0.487956,-0.244675
2069000000.0,0.490658,-0.243541
2076000000.0,0.487734,-0.255954
2083000000.0,0.490966,-0.265286
2090000000.0,0.494303,-0.2816
2097000000.0,0.495126,-0.30181
2104000000.0,0.493653,-0.329997
2111000000.0,0.493091,-0.353415
2118000000.0,0.484255,-0.385868
2125000000.0,0.47454,-0.412711
2132000000.0,0.453134,-0.442967
2139000000.0,0.429918,-0.47104
2146000000.0,0.402883,-0.495033
2153000000.0,0.369668,-0.519801
2160000000.0,0.335994,-0.533717
2167000000.0,0.298826,-0.551677
2174000000.0,0.259592,-0.561748
2181000000.0,0.216309,-0.564158
2188000000.0,0.17745,-0.567777
2195000000.0,0.149178,-0.560274
2202000000.0,0.114317,-0.546444
2209000000.0,0.080636,-0.533972
2216000000.0,0.064813,-0.515804
2223000000.0,0.040221,-0.49728
2230000000.0,0.025941,-0.478118
2237000000.0,0.013767,-0.457275
2244000000.0,0.014471,-0.436482
2251000000.0,0.008239,-0.419852
2258000000.0,0.014807,-0.405834
2265000000.0,0.019795,-0.391282
2272000000.0,0.029186,-0.378449
2279000000.0,0.037374,-0.371113
2286000000.0,0.049325,-0.373224
2293000000.0,0.062002,-0.380278
2300000000.0,0.072668,-0.394566
2307000000.0,0.079473,-0.416197
2314000000.0,0.09116,-0.442882
2321000000.0,0.093963,-0.478533
2328000000.0,0.084721,-0.513146
2335000000.0,0.067548,-0.554204
2342000000.0,0.042809,-0.593981
2349000000.0,0.012509,-0.626399
2356000000.0,-0.029652,-0.656337
2363000000.0,-0.079574,-0.674183
2370000000.0,-0.13772,-0.685097
2377000000.0,-0.183688,-0.689898
2384000000.0,-0.239358,-0.691717
2391000000.0,-0.289187,-0.677239
2398000000.0,-0.350303,-0.659663
2405000000.0,-0.396816,-0.640369
2412000000.0,-0.446628,-0.628953
2419000000.0,-0.484921,-0.597109
2426000000.0,-0.529144,-0.565701
2433000000.0,-0.572055,-0.528062
2440000000.0,-0.597618,-0.504514
2447000000.0,-0.636789,-0.4541
2454000000.0,-0.66351,-0.414535
2461000000.0,-0.681516,-0.38006
2468000000.0,-0.702585,-0.332684
2475000000.0,-0.722708,-0.290992
2482000000.0,-0.735325,-0.237427
2489000000.0,-0.745376,-0.182079
2496000000.0,-0.748745,-0.134104
2503000000.0,-0.751082,-0.091583
2510000000.0,-0.743248,-0.045218
2517000000.0,-0.731683,0.000422
2524000000.0,-0.719748,0.045844
2531000000.0,-0.698352,0.086473
2538000000.0,-0.679595,0.132315
2545000000.0,-0.650218,0.173966
2552000000.0,-0.619891,0.204172
2559000000.0,-0.581252,0.237738
2566000000.0,-0.553142,0.247876
2573000000.0,-0.509772,0.274424
2580000000.0,-0.470486,0.289734
2587000000.0,-0.445495,0.277516
2594000000.0,-0.414056,0.278417
2601000000.0,-0.389777,0.270321
2608000000.0,-0.367244,0.263796
2615000000.0,-0.354854,0.249619
2622000000.0,-0.343819,0.240995
2629000000.0,-0.330397,0.239284
2636000000.0,-0.333579,0.22736
2643000000.0,-0.33153,0.224342
2650000000.0,-0.341021,0.215022
2657000000.0,-0.343998,0.22048
2664000000.0,-0.355886,0.221853
2671000000.0,-0.363525,0.229074
2678000000.0,-0.366556,0.240697
2685000000.0,-0.373757,0.253452
2692000000.0,-0.374811,0.275952
2699000000.0,-0.380821,0.291309
2706000000.0,-0.38472,0.309707
2713000000.0,-0.39182,0.329531
2720000000.0,-0.400604,0.348831
2727000000.0,-0.392801,0.381747
2734000000.0,-0.39454,0.397732
2741000000.0,-0.382056,0.432265
2748000000.0,-0.377633,0.449827
2755000000.0,-0.35755,0.483891
2762000000.0,-0.339622,0.511406
2769000000.0,-0.313666,0.538293
2776000000.0,-0.280672,0.560109
2783000000.0,-0.240481,0.587944
2790000000.0,-0.214578,0.607971
2797000000.0,-0.206403,0.617976
2804000000.0,-0.149764,0.643329
2811000000.0,-0.102348,0.659583
2818000000.0,-0.071715,0.667315
2825000000.0,-0.039507,0.673948
2832000000.0,-0.003209,0.682477
2839000000.0,0.056818,0.67223
2846000000.0,0.059594,0.673608
2853000000.0,0.099401,0.665447
2860000000.0,0.13224,0.658464
2867000000.0,0.163696,0.647422
2874000000.0,0.185544,0.632263
2881000000.0,0.232737,0.611057
2888000000.0,0.254246,0.596771
2895000000.0,0.281983,0.583417
2902000000.0,0.295585,0.573437
2909000000.0,0.331364,0.549643
2916000000.0,0.349155,0.530552
2923000000.0,0.372499,0.509464
2930000000.0,0.386202,0.497772
2937000000.0,0.404878,0.480047
2944000000.0,0.426331,0.453711
2951000000.0,0.441841,0.43456
2958000000.0,0.461783,0.412056
2965000000.0,0.463215,0.404397
2972000000.0,0.48286,0.367349
2979000000.0,0.49452,0.348971
2986000000.0,0.511224,0.324162
2993000000.0,0.520027,0.30034
3000000000.0,0.533892,0.272581
