Frequency (Hz),Real Part,Imaginary Part
1600000000.0,-0.769566,0.549299
1607000000.0,-0.74501,0.582714
1614000000.0,-0.7174,0.618794
1621000000.0,-0.690241,0.649681
1628000000.0,-0.650594,0.683595
1635000000.0,-0.614091,0.71294
1642000000.0,-0.580054,0.73564
1649000000.0,-0.539139,0.763777
1656000000.0,-0.492489,0.789439
1663000000.0,-0.464244,0.809363
1670000000.0,-0.426182,0.828677
1677000000.0,-0.383111,0.848527
1684000000.0,-0.351736,0.862411
1691000000.0,-0.301118,0.8775
1698000000.0,-0.257487,0.889222
1705000000.0,-0.214257,0.901971
1712000000.0,-0.16792,0.907837
1719000000.0,-0.122056,0.911349
1726000000.0,-0.085704,0.918301
1733000000.0,-0.044619,0.919889
1740000000.0,0.00575,0.918482
1747000000.0,0.047811,0.910153
1754000000.0,0.086004,0.908858
1761000000.0,0.132829,0.893631
1768000000.0,0.179783,0.88387
1775000000.0,0.216568,0.871976
1782000000.0,0.253535,0.861794
1789000000.0,0.292933,0.841131
1796000000.0,0.331312,0.826087
1803000000.0,0.378538,0.803527
1810000000.0,0.40143,0.789189
1817000000.0,0.445847,0.764299
1824000000.0,0.396691,0.7952
1831000000.0,0.523164,0.705186
1838000000.0,0.545184,0.683485
1845000000.0,0.576236,0.648473
1852000000.0,0.599635,0.626629
1859000000.0,0.620652,0.5902
1866000000.0,0.644031,0.55631
1873000000.0,0.671825,0.513704
1880000000.0,0.699786,0.476118
1887000000.0,0.724883,0.428486
1894000000.0,0.741513,0.390427
1901000000.0,0.753105,0.353767
1908000000.0,0.762236,0.304774
1915000000.0,0.772811,0.259412
1922000000.0,0.769941,0.221607
1929000000.0,0.775183,0.17974
1936000000.0,0.774843,0.132005
1943000000.0,0.769543,0.087072
1950000000.0,0.760729,0.040496
1957000000.0,0.750388,0.008654
1964000000.0,0.732064,-0.038092
1971000000.0,0.714514,-0.066655
1978000000.0,0.688279,-0.095935
1985000000.0,0.666232,-0.123411
1992000000.0,0.642045,-0.150899
1999000000.0,0.614179,-0.173778
2006000000.0,0.590647,-0.183327
2013000000.0,0.565386,-0.19664
2020000000.0,0.547491,-0.195757
2027000000.0,0.527402,-0.204474
2034000000.0,0.515834,-0.200907
2041000000.0,0.507481,-0.201547
2048000000.0,0.504374,-0.204542
2055000000.0,0.504824,-0.205222
2062000000.0,0.508426,-0.21678
2069000000.0,0.513989,-0.227484
2076000000.0,0.523587,-0.245232
2083000000.0,0.527094,-0.268197
2090000000.0,0.53199,-0.293236
2097000000.0,0.527912,-0.32853
2104000000.0,0.522374,-0.365719
2111000000.0,0.514116,-0.39382
2118000000.0,0.497071,-0.43422
2125000000.0,0.470492,-0.469279
2132000000.0,0.448196,-0.496376
2139000000.0,0.413653,-0.526784
2146000000.0,0.371106,-0.550256
2153000000.0,0.328004,-0.569173
2160000000.0,0.284467,-0.579022
2167000000.0,0.246805,-0.582751
2174000000.0,0.194493,-0.585393
2181000000.0,0.149638,-0.580932
2188000000.0,0.108702,-0.570773
2195000000.0,0.071133,-0.554394
2202000000.0,0.043437,-0.527414
2209000000.0,0.016724,-0.503974
2216000000.0,0.004573,-0.476268
2223000000.0,-0.010388,-0.449115
2230000000.0,-0.016636,-0.419919
2237000000.0,-0.022571,-0.39327
2244000000.0,0.026093,-0.368989
2251000000.0,-0.005239,-0.346559
2258000000.0,0.014334,-0.328694
2265000000.0,0.028226,-0.315069
2272000000.0,0.052198,-0.307969
2279000000.0,0.074443,-0.30828
2286000000.0,0.095895,-0.319119
2293000000.0,0.112605,-0.342261
2300000000.0,0.126865,-0.3685
2307000000.0,0.134625,-0.404009
2314000000.0,0.136869,-0.43637
2321000000.0,0.12955,-0.474919
2328000000.0,0.113094,-0.509239
2335000000.0,0.098411,-0.54682
2342000000.0,0.075665,-0.579327
2349000000.0,0.038499,-0.614122
2356000000.0,0.011673,-0.634747
2363000000.0,-0.026014,-0.661178
2370000000.0,-0.071188,-0.675021
2377000000.0,-0.122096,-0.692438
2384000000.0,-0.166785,-0.705981
2391000000.0,-0.226084,-0.705522
2398000000.0,-0.276921,-0.701682
2405000000.0,-0.337582,-0.693784
2412000000.0,-0.382659,-0.690694
2419000000.0,-0.440832,-0.662537
2426000000.0,-0.484452,-0.635954
2433000000.0,-0.526653,-0.614036
2440000000.0,-0.573269,-0.576989
2447000000.0,-0.612239,-0.534904
2454000000.0,-0.644321,-0.507636
2461000000.0,-0.675778,-0.459931
2468000000.0,-0.703411,-0.419267
2475000000.0,-0.724131,-0.381265
2482000000.0,-0.740937,-0.337693
2489000000.0,-0.752326,-0.295956
2496000000.0,-0.768057,-0.244987
2503000000.0,-0.772358,-0.2029
2510000000.0,-0.78004,-0.162235
2517000000.0,-0.783139,-0.11936
2524000000.0,-0.778698,-0.079865
2531000000.0,-0.783148,-0.039272
2538000000.0,-0.784645,0.002527
2545000000.0,-0.780115,0.03723
2552000000.0,-0.773252,0.079738
2559000000.0,-0.765638,0.122433
2566000000.0,-0.753834,0.173293
2573000000.0,-0.743091,0.203062
2580000000.0,-0.727782,0.240775
2587000000.0,-0.714996,0.273593
2594000000.0,-0.694462,0.316477
2601000000.0,-0.658502,0.363359
2608000000.0,-0.638283,0.385436
2615000000.0,-0.60876,0.42117
2622000000.0,-0.578542,0.450108
2629000000.0,-0.539062,0.474486
2636000000.0,-0.49155,0.503936
2643000000.0,-0.470754,0.507128
2650000000.0,-0.416236,0.531125
2657000000.0,-0.378788,0.541126
2664000000.0,-0.346382,0.543129
2671000000.0,-0.302029,0.54816
2678000000.0,-0.263519,0.545358
2685000000.0,-0.239743,0.531697
2692000000.0,-0.214048,0.522831
2699000000.0,-0.264069,0.479928
2706000000.0,-0.16854,0.499257
2713000000.0,-0.16405,0.485244
2720000000.0,-0.152554,0.472379
2727000000.0,-0.150086,0.461032
2734000000.0,-0.150823,0.455403
2741000000.0,-0.151404,0.455916
2748000000.0,-0.143535,0.45465
2755000000.0,-0.149094,0.458018
2762000000.0,-0.143932,0.464566
2769000000.0,-0.136614,0.4717
2776000000.0,-0.127178,0.484019
2783000000.0,-0.110803,0.49708
2790000000.0,-0.094543,0.510118
2797000000.0,-0.070909,0.530222
2804000000.0,-0.053707,0.546768
2811000000.0,-0.035115,0.560959
2818000000.0,-0.007645,0.579663
2825000000.0,0.004677,0.585963
2832000000.0,0.038176,0.590151
2839000000.0,0.066021,0.598925
2846000000.0,0.096731,0.599343
2853000000.0,0.121635,0.602476
2860000000.0,0.152625,0.590061
2867000000.0,0.184002,0.587012
2874000000.0,0.212564,0.566269
2881000000.0,0.24231,0.560154
2888000000.0,0.260947,0.542404
2895000000.0,0.295837,0.529507
2902000000.0,0.316694,0.515341
2909000000.0,0.341009,0.498988
2916000000.0,0.362299,0.476823
2923000000.0,0.380268,0.459941
2930000000.0,0.397636,0.442096
2937000000.0,0.419789,0.419058
2944000000.0,0.433196,0.400426
2951000000.0,0.445077,0.377606
2958000000.0,0.451289,0.372084
2965000000.0,0.469646,0.34347
2972000000.0,0.478844,0.328313
2979000000.0,0.490969,0.304135
2986000000.0,0.501578,0.276112
2993000000.0,0.509567,0.259397
3000000000.0,0.520007,0.232137
