"# Channel 1"
"# Trace 1"
Frequency, Formatted Data, Formatted Data
+1.00000000000E+009, -9.62070795824E-001, +0.00000000000E+000
+1.00500000000E+009, -9.51768784039E-001, +0.00000000000E+000
+1.01000000000E+009, -9.39547629149E-001, +0.00000000000E+000
+1.01500000000E+009, -9.33377434833E-001, +0.00000000000E+000
+1.02000000000E+009, -9.26791931969E-001, +0.00000000000E+000
+1.02500000000E+009, -9.21298419411E-001, +0.00000000000E+000
+1.03000000000E+009, -9.11313652914E-001, +0.00000000000E+000
+1.03500000000E+009, -9.00565279051E-001, +0.00000000000E+000
+1.04000000000E+009, -9.00358637181E-001, +0.00000000000E+000
+1.04500000000E+009, -8.90470600067E-001, +0.00000000000E+000
+1.05000000000E+009, -8.84287889716E-001, +0.00000000000E+000
+1.05500000000E+009, -8.71922676042E-001, +0.00000000000E+000
+1.06000000000E+009, -8.64854437058E-001, +0.00000000000E+000
+1.06500000000E+009, -8.56375717983E-001, +0.00000000000E+000
+1.07000000000E+009, -8.52833872650E-001, +0.00000000000E+000
+1.07500000000E+009, -8.42133964168E-001, +0.00000000000E+000
+1.08000000000E+009, -8.33661438393E-001, +0.00000000000E+000
+1.08500000000E+009, -8.25206554390E-001, +0.00000000000E+000
+1.09000000000E+009, -8.18705405635E-001, +0.00000000000E+000
+1.09500000000E+009, -8.12590239191E-001, +0.00000000000E+000
+1.10000000000E+009, -8.04277886945E-001, +0.00000000000E+000
+1.10500000000E+009, -7.98294435262E-001, +0.00000000000E+000
+1.11000000000E+009, -7.89714076975E-001, +0.00000000000E+000
+1.11500000000E+009, -7.78571188502E-001, +0.00000000000E+000
+1.12000000000E+009, -7.68276564280E-001, +0.00000000000E+000
+1.12500000000E+009, -7.66033577448E-001, +0.00000000000E+000
+1.13000000000E+009, -7.55130687158E-001, +0.00000000000E+000
+1.13500000000E+009, -7.46897899644E-001, +0.00000000000E+000
+1.14000000000E+009, -7.37662308613E-001, +0.00000000000E+000
+1.14500000000E+009, -7.29870365395E-001, +0.00000000000E+000
+1.15000000000E+009, -7.19373170288E-001, +0.00000000000E+000
+1.15500000000E+009, -7.10612505027E-001, +0.00000000000E+000
+1.16000000000E+009, -7.04279696412E-001, +0.00000000000E+000
+1.16500000000E+009, -6.95486413965E-001, +0.00000000000E+000
+1.17000000000E+009, -6.81310486393E-001, +0.00000000000E+000
+1.17500000000E+009, -6.78483804810E-001, +0.00000000000E+000
+1.18000000000E+009, -6.70911610787E-001, +0.00000000000E+000
+1.18500000000E+009, -6.62291799946E-001, +0.00000000000E+000
+1.19000000000E+009, -6.47323977015E-001, +0.00000000000E+000
+1.19500000000E+009, -6.41406232249E-001, +0.00000000000E+000
+1.20000000000E+009, -6.29529900766E-001, +0.00000000000E+000
+1.20500000000E+009, -6.29042941463E-001, +0.00000000000E+000
+1.21000000000E+009, -6.13971318039E-001, +0.00000000000E+000
+1.21500000000E+009, -6.05800558532E-001, +0.00000000000E+000
+1.22000000000E+009, -5.99368002255E-001, +0.00000000000E+000
+1.22500000000E+009, -5.93617976043E-001, +0.00000000000E+000
+1.23000000000E+009, -5.79925572779E-001, +0.00000000000E+000
+1.23500000000E+009, -5.75911943493E-001, +0.00000000000E+000
+1.24000000000E+009, -5.68512482737E-001, +0.00000000000E+000
+1.24500000000E+009, -5.58682445579E-001, +0.00000000000E+000
+1.25000000000E+009, -5.56380312442E-001, +0.00000000000E+000
+1.25500000000E+009, -5.47719342393E-001, +0.00000000000E+000
+1.26000000000E+009, -5.43101216944E-001, +0.00000000000E+000
+1.26500000000E+009, -5.33287085183E-001, +0.00000000000E+000
+1.27000000000E+009, -5.27143403958E-001, +0.00000000000E+000
+1.27500000000E+009, -5.18890584370E-001, +0.00000000000E+000
+1.28000000000E+009, -5.09233350628E-001, +0.00000000000E+000
+1.28500000000E+009, -5.03056389580E-001, +0.00000000000E+000
+1.29000000000E+009, -4.96677661567E-001, +0.00000000000E+000
+1.29500000000E+009, -4.91218579665E-001, +0.00000000000E+000
+1.30000000000E+009, -4.83494478450E-001, +0.00000000000E+000
+1.30500000000E+009, -4.78085077240E-001, +0.00000000000E+000
+1.31000000000E+009, -4.73428073483E-001, +0.00000000000E+000
+1.31500000000E+009, -4.62878531004E-001, +0.00000000000E+000
+1.32000000000E+009, -4.59752891734E-001, +0.00000000000E+000
+1.32500000000E+009, -4.54505731147E-001, +0.00000000000E+000
+1.33000000000E+009, -4.52108009400E-001, +0.00000000000E+000
+1.33500000000E+009, -4.44526725219E-001, +0.00000000000E+000
+1.34000000000E+009, -4.43609140149E-001, +0.00000000000E+000
+1.34500000000E+009, -4.34952555296E-001, +0.00000000000E+000
+1.35000000000E+009, -4.32703207703E-001, +0.00000000000E+000
+1.35500000000E+009, -4.29101951400E-001, +0.00000000000E+000
+1.36000000000E+009, -4.26035689996E-001, +0.00000000000E+000
+1.36500000000E+009, -4.21387636277E-001, +0.00000000000E+000
+1.37000000000E+009, -4.15445651735E-001, +0.00000000000E+000
+1.37500000000E+009, -4.12650827479E-001, +0.00000000000E+000
+1.38000000000E+009, -4.10288813773E-001, +0.00000000000E+000
+1.38500000000E+009, -4.08749886734E-001, +0.00000000000E+000
+1.39000000000E+009, -4.06291059542E-001, +0.00000000000E+000
+1.39500000000E+009, -4.04218979778E-001, +0.00000000000E+000
+1.40000000000E+009, -3.98777727820E-001, +0.00000000000E+000
+1.40500000000E+009, -3.95657812560E-001, +0.00000000000E+000
+1.41000000000E+009, -3.94493497695E-001, +0.00000000000E+000
+1.41500000000E+009, -3.93926537681E-001, +0.00000000000E+000
+1.42000000000E+009, -3.89515976010E-001, +0.00000000000E+000
+1.42500000000E+009, -3.86946545376E-001, +0.00000000000E+000
+1.43000000000E+009, -3.84108534495E-001, +0.00000000000E+000
+1.43500000000E+009, -3.80255231116E-001, +0.00000000000E+000
+1.44000000000E+009, -3.85597091503E-001, +0.00000000000E+000
+1.44500000000E+009, -3.85141855817E-001, +0.00000000000E+000
+1.45000000000E+009, -3.83498284475E-001, +0.00000000000E+000
+1.45500000000E+009, -3.81648191234E-001, +0.00000000000E+000
+1.46000000000E+009, -3.81943072086E-001, +0.00000000000E+000
+1.46500000000E+009, -3.83863136374E-001, +0.00000000000E+000
+1.47000000000E+009, -3.80628051678E-001, +0.00000000000E+000
+1.47500000000E+009, -3.82204976965E-001, +0.00000000000E+000
+1.48000000000E+009, -3.81759755646E-001, +0.00000000000E+000
+1.48500000000E+009, -3.78651070819E-001, +0.00000000000E+000
+1.49000000000E+009, -3.84274885809E-001, +0.00000000000E+000
+1.49500000000E+009, -3.83825389213E-001, +0.00000000000E+000
+1.50000000000E+009, -3.86801877937E-001, +0.00000000000E+000
+1.50500000000E+009, -3.85048986345E-001, +0.00000000000E+000
+1.51000000000E+009, -3.87271814974E-001, +0.00000000000E+000
+1.51500000000E+009, -3.89110326897E-001, +0.00000000000E+000
+1.52000000000E+009, -3.92180642458E-001, +0.00000000000E+000
+1.52500000000E+009, -3.89532599100E-001, +0.00000000000E+000
+1.53000000000E+009, -3.93060585376E-001, +0.00000000000E+000
+1.53500000000E+009, -3.91356784461E-001, +0.00000000000E+000
+1.54000000000E+009, -3.96373775376E-001, +0.00000000000E+000
+1.54500000000E+009, -4.00019495342E-001, +0.00000000000E+000
+1.55000000000E+009, -3.99439076417E-001, +0.00000000000E+000
+1.55500000000E+009, -4.04701490227E-001, +0.00000000000E+000
+1.56000000000E+009, -4.06812092025E-001, +0.00000000000E+000
+1.56500000000E+009, -4.08703176082E-001, +0.00000000000E+000
+1.57000000000E+009, -4.12054777471E-001, +0.00000000000E+000
+1.57500000000E+009, -4.18568414367E-001, +0.00000000000E+000
+1.58000000000E+009, -4.22251616322E-001, +0.00000000000E+000
+1.58500000000E+009, -4.27701895130E-001, +0.00000000000E+000
+1.59000000000E+009, -4.32510285521E-001, +0.00000000000E+000
+1.59500000000E+009, -4.35313758634E-001, +0.00000000000E+000
+1.60000000000E+009, -4.38587367168E-001, +0.00000000000E+000
+1.60500000000E+009, -4.44161710873E-001, +0.00000000000E+000
+1.61000000000E+009, -4.49148602693E-001, +0.00000000000E+000
+1.61500000000E+009, -4.55148745289E-001, +0.00000000000E+000
+1.62000000000E+009, -4.59994906363E-001, +0.00000000000E+000
+1.62500000000E+009, -4.62825521241E-001, +0.00000000000E+000
+1.63000000000E+009, -4.69160510556E-001, +0.00000000000E+000
+1.63500000000E+009, -4.72817803880E-001, +0.00000000000E+000
+1.64000000000E+009, -4.80283485984E-001, +0.00000000000E+000
+1.64500000000E+009, -4.87028491747E-001, +0.00000000000E+000
+1.65000000000E+009, -4.85904149415E-001, +0.00000000000E+000
+1.65500000000E+009, -4.94411292162E-001, +0.00000000000E+000
+1.66000000000E+009, -4.98439591536E-001, +0.00000000000E+000
+1.66500000000E+009, -5.00811925114E-001, +0.00000000000E+000
+1.67000000000E+009, -5.04650282211E-001, +0.00000000000E+000
+1.67500000000E+009, -5.15283667319E-001, +0.00000000000E+000
+1.68000000000E+009, -5.21895081153E-001, +0.00000000000E+000
+1.68500000000E+009, -5.25598855301E-001, +0.00000000000E+000
+1.69000000000E+009, -5.26539127523E-001, +0.00000000000E+000
+1.69500000000E+009, -5.34527533354E-001, +0.00000000000E+000
+1.70000000000E+009, -5.44406950973E-001, +0.00000000000E+000
+1.70500000000E+009, -5.46717820849E-001, +0.00000000000E+000
+1.71000000000E+009, -5.52764383586E-001, +0.00000000000E+000
+1.71500000000E+009, -5.60779087092E-001, +0.00000000000E+000
+1.72000000000E+009, -5.68725660145E-001, +0.00000000000E+000
+1.72500000000E+009, -5.78725457032E-001, +0.00000000000E+000
+1.73000000000E+009, -5.85032620710E-001, +0.00000000000E+000
+1.73500000000E+009, -5.90145650635E-001, +0.00000000000E+000
+1.74000000000E+009, -5.99011483890E-001, +0.00000000000E+000
+1.74500000000E+009, -6.03239102749E-001, +0.00000000000E+000
+1.75000000000E+009, -6.11577688182E-001, +0.00000000000E+000
+1.75500000000E+009, -6.18476843744E-001, +0.00000000000E+000
+1.76000000000E+009, -6.26400392633E-001, +0.00000000000E+000
+1.76500000000E+009, -6.32399765713E-001, +0.00000000000E+000
+1.77000000000E+009, -6.35518806847E-001, +0.00000000000E+000
+1.77500000000E+009, -6.46063934210E-001, +0.00000000000E+000
+1.78000000000E+009, -6.51324029928E-001, +0.00000000000E+000
+1.78500000000E+009, -6.56354917058E-001, +0.00000000000E+000
+1.79000000000E+009, -6.67087139844E-001, +0.00000000000E+000
+1.79500000000E+009, -6.73044110459E-001, +0.00000000000E+000
+1.80000000000E+009, -6.78001555375E-001, +0.00000000000E+000
+1.80500000000E+009, -6.85638122378E-001, +0.00000000000E+000
+1.81000000000E+009, -6.89802395166E-001, +0.00000000000E+000
+1.81500000000E+009, -6.93894554164E-001, +0.00000000000E+000
+1.82000000000E+009, -7.05464194524E-001, +0.00000000000E+000
+1.82500000000E+009, -7.04749070618E-001, +0.00000000000E+000
+1.83000000000E+009, -7.17852466601E-001, +0.00000000000E+000
+1.83500000000E+009, -7.19508920477E-001, +0.00000000000E+000
+1.84000000000E+009, -7.25638894421E-001, +0.00000000000E+000
+1.84500000000E+009, -7.30877771080E-001, +0.00000000000E+000
+1.85000000000E+009, -7.38005210233E-001, +0.00000000000E+000
+1.85500000000E+009, -7.44168803789E-001, +0.00000000000E+000
+1.86000000000E+009, -7.48530330195E-001, +0.00000000000E+000
+1.86500000000E+009, -7.51176363260E-001, +0.00000000000E+000
+1.87000000000E+009, -7.57758059697E-001, +0.00000000000E+000
+1.87500000000E+009, -7.66751718855E-001, +0.00000000000E+000
+1.88000000000E+009, -7.65353071599E-001, +0.00000000000E+000
+1.88500000000E+009, -7.65987906427E-001, +0.00000000000E+000
+1.89000000000E+009, -7.70475178760E-001, +0.00000000000E+000
+1.89500000000E+009, -7.70808901695E-001, +0.00000000000E+000
+1.90000000000E+009, -7.77334252116E-001, +0.00000000000E+000
+1.90500000000E+009, -7.76478877380E-001, +0.00000000000E+000
+1.91000000000E+009, -7.80705776393E-001, +0.00000000000E+000
+1.91500000000E+009, -7.85113269982E-001, +0.00000000000E+000
+1.92000000000E+009, -7.84120575544E-001, +0.00000000000E+000
+1.92500000000E+009, -7.90874892582E-001, +0.00000000000E+000
+1.93000000000E+009, -7.92132387850E-001, +0.00000000000E+000
+1.93500000000E+009, -7.94767905832E-001, +0.00000000000E+000
+1.94000000000E+009, -7.95440220209E-001, +0.00000000000E+000
+1.94500000000E+009, -8.03320900324E-001, +0.00000000000E+000
+1.95000000000E+009, -8.03853285989E-001, +0.00000000000E+000
+1.95500000000E+009, -8.04535440968E-001, +0.00000000000E+000
+1.96000000000E+009, -8.07597455843E-001, +0.00000000000E+000
+1.96500000000E+009, -8.09921554980E-001, +0.00000000000E+000
+1.97000000000E+009, -8.15744274307E-001, +0.00000000000E+000
+1.97500000000E+009, -8.16785977181E-001, +0.00000000000E+000
+1.98000000000E+009, -8.17449170880E-001, +0.00000000000E+000
+1.98500000000E+009, -8.21688585340E-001, +0.00000000000E+000
+1.99000000000E+009, -8.19642988583E-001, +0.00000000000E+000
+1.99500000000E+009, -8.21484369533E-001, +0.00000000000E+000
+2.00000000000E+009, -8.27231657739E-001, +0.00000000000E+000
+2.00500000000E+009, -8.32268393947E-001, +0.00000000000E+000
+2.01000000000E+009, -8.30369263254E-001, +0.00000000000E+000
+2.01500000000E+009, -8.33404328227E-001, +0.00000000000E+000
+2.02000000000E+009, -8.34984170638E-001, +0.00000000000E+000
+2.02500000000E+009, -8.40027928455E-001, +0.00000000000E+000
+2.03000000000E+009, -8.36320737676E-001, +0.00000000000E+000
+2.03500000000E+009, -8.38027684722E-001, +0.00000000000E+000
+2.04000000000E+009, -8.36497409815E-001, +0.00000000000E+000
+2.04500000000E+009, -8.39620440948E-001, +0.00000000000E+000
+2.05000000000E+009, -8.46676284010E-001, +0.00000000000E+000
+2.05500000000E+009, -8.45510638878E-001, +0.00000000000E+000
+2.06000000000E+009, -8.43365886140E-001, +0.00000000000E+000
+2.06500000000E+009, -8.46121681060E-001, +0.00000000000E+000
+2.07000000000E+009, -8.47781063114E-001, +0.00000000000E+000
+2.07500000000E+009, -8.45520329326E-001, +0.00000000000E+000
+2.08000000000E+009, -8.45197468299E-001, +0.00000000000E+000
+2.08500000000E+009, -8.44228248875E-001, +0.00000000000E+000
+2.09000000000E+009, -8.43452449089E-001, +0.00000000000E+000
+2.09500000000E+009, -8.43477870422E-001, +0.00000000000E+000
+2.10000000000E+009, -8.45459920576E-001, +0.00000000000E+000
+2.10500000000E+009, -8.45580019788E-001, +0.00000000000E+000
+2.11000000000E+009, -8.45500131919E-001, +0.00000000000E+000
+2.11500000000E+009, -8.42531547801E-001, +0.00000000000E+000
+2.12000000000E+009, -8.50667159139E-001, +0.00000000000E+000
+2.12500000000E+009, -8.46872468071E-001, +0.00000000000E+000
+2.13000000000E+009, -8.46114155565E-001, +0.00000000000E+000
+2.13500000000E+009, -8.45020604740E-001, +0.00000000000E+000
+2.14000000000E+009, -8.48568581973E-001, +0.00000000000E+000
+2.14500000000E+009, -8.46566594168E-001, +0.00000000000E+000
+2.15000000000E+009, -8.41492620508E-001, +0.00000000000E+000
+2.15500000000E+009, -8.47798346731E-001, +0.00000000000E+000
+2.16000000000E+009, -8.43182063883E-001, +0.00000000000E+000
+2.16500000000E+009, -8.41684913598E-001, +0.00000000000E+000
+2.17000000000E+009, -8.35715567296E-001, +0.00000000000E+000
+2.17500000000E+009, -8.33215357781E-001, +0.00000000000E+000
+2.18000000000E+009, -8.33373182294E-001, +0.00000000000E+000
+2.18500000000E+009, -8.30577445208E-001, +0.00000000000E+000
+2.19000000000E+009, -8.31840458324E-001, +0.00000000000E+000
+2.19500000000E+009, -8.31675656081E-001, +0.00000000000E+000
+2.20000000000E+009, -8.29484012121E-001, +0.00000000000E+000
+2.20500000000E+009, -8.31024178895E-001, +0.00000000000E+000
+2.21000000000E+009, -8.28162650071E-001, +0.00000000000E+000
+2.21500000000E+009, -8.25386155601E-001, +0.00000000000E+000
+2.22000000000E+009, -8.27162215046E-001, +0.00000000000E+000
+2.22500000000E+009, -8.22204449807E-001, +0.00000000000E+000
+2.23000000000E+009, -8.21229793243E-001, +0.00000000000E+000
+2.23500000000E+009, -8.20802290313E-001, +0.00000000000E+000
+2.24000000000E+009, -8.22197725733E-001, +0.00000000000E+000
+2.24500000000E+009, -8.20987464019E-001, +0.00000000000E+000
+2.25000000000E+009, -8.17348681737E-001, +0.00000000000E+000
+2.25500000000E+009, -8.15715722221E-001, +0.00000000000E+000
+2.26000000000E+009, -8.15333963571E-001, +0.00000000000E+000
+2.26500000000E+009, -8.19048581259E-001, +0.00000000000E+000
+2.27000000000E+009, -8.16270648203E-001, +0.00000000000E+000
+2.27500000000E+009, -8.10377187641E-001, +0.00000000000E+000
+2.28000000000E+009, -8.12775295835E-001, +0.00000000000E+000
+2.28500000000E+009, -8.15429906568E-001, +0.00000000000E+000
+2.29000000000E+009, -8.14355424509E-001, +0.00000000000E+000
+2.29500000000E+009, -8.13718628580E-001, +0.00000000000E+000
+2.30000000000E+009, -8.14097355183E-001, +0.00000000000E+000
+2.30500000000E+009, -8.16776278420E-001, +0.00000000000E+000
+2.31000000000E+009, -8.13181989772E-001, +0.00000000000E+000
+2.31500000000E+009, -8.15561332227E-001, +0.00000000000E+000
+2.32000000000E+009, -8.12279823077E-001, +0.00000000000E+000
+2.32500000000E+009, -8.12196822713E-001, +0.00000000000E+000
+2.33000000000E+009, -8.11218749644E-001, +0.00000000000E+000
+2.33500000000E+009, -8.12631607724E-001, +0.00000000000E+000
+2.34000000000E+009, -8.11578334135E-001, +0.00000000000E+000
+2.34500000000E+009, -8.10429429889E-001, +0.00000000000E+000
+2.35000000000E+009, -8.04854442932E-001, +0.00000000000E+000
+2.35500000000E+009, -8.06474976949E-001, +0.00000000000E+000
+2.36000000000E+009, -8.05248505993E-001, +0.00000000000E+000
+2.36500000000E+009, -8.03712090424E-001, +0.00000000000E+000
+2.37000000000E+009, -8.04862317560E-001, +0.00000000000E+000
+2.37500000000E+009, -8.07531464317E-001, +0.00000000000E+000
+2.38000000000E+009, -8.04205002972E-001, +0.00000000000E+000
+2.38500000000E+009, -7.98767871008E-001, +0.00000000000E+000
+2.39000000000E+009, -7.98601363274E-001, +0.00000000000E+000
+2.39500000000E+009, -8.01621172644E-001, +0.00000000000E+000
+2.40000000000E+009, -7.99250386999E-001, +0.00000000000E+000
+2.40500000000E+009, -7.97701965275E-001, +0.00000000000E+000
+2.41000000000E+009, -7.95305013457E-001, +0.00000000000E+000
+2.41500000000E+009, -7.96095528632E-001, +0.00000000000E+000
+2.42000000000E+009, -7.96457404266E-001, +0.00000000000E+000
+2.42500000000E+009, -7.92315885777E-001, +0.00000000000E+000
+2.43000000000E+009, -7.94552069464E-001, +0.00000000000E+000
+2.43500000000E+009, -7.93011896647E-001, +0.00000000000E+000
+2.44000000000E+009, -7.91363466121E-001, +0.00000000000E+000
+2.44500000000E+009, -7.94239580684E-001, +0.00000000000E+000
+2.45000000000E+009, -7.94112628684E-001, +0.00000000000E+000
+2.45500000000E+009, -7.88126104151E-001, +0.00000000000E+000
+2.46000000000E+009, -7.93940544110E-001, +0.00000000000E+000
+2.46500000000E+009, -7.92656809963E-001, +0.00000000000E+000
+2.47000000000E+009, -7.95519561404E-001, +0.00000000000E+000
+2.47500000000E+009, -7.99312059564E-001, +0.00000000000E+000
+2.48000000000E+009, -7.95657235676E-001, +0.00000000000E+000
+2.48500000000E+009, -8.03317340502E-001, +0.00000000000E+000
+2.49000000000E+009, -8.06039778745E-001, +0.00000000000E+000
+2.49500000000E+009, -8.05360817599E-001, +0.00000000000E+000
+2.50000000000E+009, -8.10086870863E-001, +0.00000000000E+000
+2.50500000000E+009, -8.17126109315E-001, +0.00000000000E+000
+2.51000000000E+009, -8.19116536442E-001, +0.00000000000E+000
+2.51500000000E+009, -8.28069664494E-001, +0.00000000000E+000
+2.52000000000E+009, -8.27153747090E-001, +0.00000000000E+000
+2.52500000000E+009, -8.34569358610E-001, +0.00000000000E+000
+2.53000000000E+009, -8.31129731812E-001, +0.00000000000E+000
+2.53500000000E+009, -8.45687760015E-001, +0.00000000000E+000
+2.54000000000E+009, -8.50554635840E-001, +0.00000000000E+000
+2.54500000000E+009, -8.60611595294E-001, +0.00000000000E+000
+2.55000000000E+009, -8.68085111077E-001, +0.00000000000E+000
+2.55500000000E+009, -8.68658057710E-001, +0.00000000000E+000
+2.56000000000E+009, -8.82911428157E-001, +0.00000000000E+000
+2.56500000000E+009, -8.88699162173E-001, +0.00000000000E+000
+2.57000000000E+009, -9.00667097645E-001, +0.00000000000E+000
+2.57500000000E+009, -9.05931496669E-001, +0.00000000000E+000
+2.58000000000E+009, -9.16684781383E-001, +0.00000000000E+000
+2.58500000000E+009, -9.21149288915E-001, +0.00000000000E+000
+2.59000000000E+009, -9.35123291395E-001, +0.00000000000E+000
+2.59500000000E+009, -9.46109250243E-001, +0.00000000000E+000
+2.60000000000E+009, -9.57454342175E-001, +0.00000000000E+000
