"# Channel 1"
"# Trace 1"
Frequency, Formatted Data, Formatted Data
+1.00000000000E+009, -7.98133052236E-001, +0.00000000000E+000
+1.00500000000E+009, -7.90358665424E-001, +0.00000000000E+000
+1.01000000000E+009, -7.79184855958E-001, +0.00000000000E+000
+1.01500000000E+009, -7.76263601038E-001, +0.00000000000E+000
+1.02000000000E+009, -7.70665145934E-001, +0.00000000000E+000
+1.02500000000E+009, -7.63903194081E-001, +0.00000000000E+000
+1.03000000000E+009, -7.51586012762E-001, +0.00000000000E+000
+1.03500000000E+009, -7.42493633307E-001, +0.00000000000E+000
+1.04000000000E+009, -7.40351893077E-001, +0.00000000000E+000
+1.04500000000E+009, -7.29070172819E-001, +0.00000000000E+000
+1.05000000000E+009, -7.20623503978E-001, +0.00000000000E+000
+1.05500000000E+009, -7.12713605163E-001, +0.00000000000E+000
+1.06000000000E+009, -7.01214521995E-001, +0.00000000000E+000
+1.06500000000E+009, -6.94132943532E-001, +0.00000000000E+000
+1.07000000000E+009, -6.88495581965E-001, +0.00000000000E+000
+1.07500000000E+009, -6.80019617132E-001, +0.00000000000E+000
+1.08000000000E+009, -6.69873252871E-001, +0.00000000000E+000
+1.08500000000E+009, -6.59302929685E-001, +0.00000000000E+000
+1.09000000000E+009, -6.55283749000E-001, +0.00000000000E+000
+1.09500000000E+009, -6.50544476752E-001, +0.00000000000E+000
+1.10000000000E+009, -6.39123807496E-001, +0.00000000000E+000
+1.10500000000E+009, -6.35383802372E-001, +0.00000000000E+000
+1.11000000000E+009, -6.31227533746E-001, +0.00000000000E+000
+1.11500000000E+009, -6.21772417647E-001, +0.00000000000E+000
+1.12000000000E+009, -6.13991661669E-001, +0.00000000000E+000
+1.12500000000E+009, -6.10847604758E-001, +0.00000000000E+000
+1.13000000000E+009, -6.02315463661E-001, +0.00000000000E+000
+1.13500000000E+009, -5.93938338421E-001, +0.00000000000E+000
+1.14000000000E+009, -5.86478053116E-001, +0.00000000000E+000
+1.14500000000E+009, -5.82328995229E-001, +0.00000000000E+000
+1.15000000000E+009, -5.76554984851E-001, +0.00000000000E+000
+1.15500000000E+009, -5.65002827039E-001, +0.00000000000E+000
+1.16000000000E+009, -5.59771777359E-001, +0.00000000000E+000
+1.16500000000E+009, -5.52810521496E-001, +0.00000000000E+000
+1.17000000000E+009, -5.41416832807E-001, +0.00000000000E+000
+1.17500000000E+009, -5.39735417558E-001, +0.00000000000E+000
+1.18000000000E+009, -5.33933971104E-001, +0.00000000000E+000
+1.18500000000E+009, -5.26795787956E-001, +0.00000000000E+000
+1.19000000000E+009, -5.12368099575E-001, +0.00000000000E+000
+1.19500000000E+009, -5.08983385775E-001, +0.00000000000E+000
+1.20000000000E+009, -5.01334052153E-001, +0.00000000000E+000
+1.20500000000E+009, -4.99079313285E-001, +0.00000000000E+000
+1.21000000000E+009, -4.87070505103E-001, +0.00000000000E+000
+1.21500000000E+009, -4.81786741300E-001, +0.00000000000E+000
+1.22000000000E+009, -4.80079157248E-001, +0.00000000000E+000
+1.22500000000E+009, -4.72549619562E-001, +0.00000000000E+000
+1.23000000000E+009, -4.62725128777E-001, +0.00000000000E+000
+1.23500000000E+009, -4.60396217750E-001, +0.00000000000E+000
+1.24000000000E+009, -4.55057824755E-001, +0.00000000000E+000
+1.24500000000E+009, -4.50504213118E-001, +0.00000000000E+000
+1.25000000000E+009, -4.48318239878E-001, +0.00000000000E+000
+1.25500000000E+009, -4.45564305613E-001, +0.00000000000E+000
+1.26000000000E+009, -4.39589314415E-001, +0.00000000000E+000
+1.26500000000E+009, -4.31256425920E-001, +0.00000000000E+000
+1.27000000000E+009, -4.28885502164E-001, +0.00000000000E+000
+1.27500000000E+009, -4.30171306214E-001, +0.00000000000E+000
+1.28000000000E+009, -4.18528543929E-001, +0.00000000000E+000
+1.28500000000E+009, -4.16277061221E-001, +0.00000000000E+000
+1.29000000000E+009, -4.14898409906E-001, +0.00000000000E+000
+1.29500000000E+009, -4.11319495629E-001, +0.00000000000E+000
+1.30000000000E+009, -4.07077245382E-001, +0.00000000000E+000
+1.30500000000E+009, -4.05797868709E-001, +0.00000000000E+000
+1.31000000000E+009, -4.01597625731E-001, +0.00000000000E+000
+1.31500000000E+009, -3.95011066534E-001, +0.00000000000E+000
+1.32000000000E+009, -3.93226502816E-001, +0.00000000000E+000
+1.32500000000E+009, -3.90415146336E-001, +0.00000000000E+000
+1.33000000000E+009, -3.89793592731E-001, +0.00000000000E+000
+1.33500000000E+009, -3.84894407331E-001, +0.00000000000E+000
+1.34000000000E+009, -3.86014781339E-001, +0.00000000000E+000
+1.34500000000E+009, -3.81252587891E-001, +0.00000000000E+000
+1.35000000000E+009, -3.81537573187E-001, +0.00000000000E+000
+1.35500000000E+009, -3.79289701707E-001, +0.00000000000E+000
+1.36000000000E+009, -3.81005440847E-001, +0.00000000000E+000
+1.36500000000E+009, -3.79489193973E-001, +0.00000000000E+000
+1.37000000000E+009, -3.74397070657E-001, +0.00000000000E+000
+1.37500000000E+009, -3.75356920023E-001, +0.00000000000E+000
+1.38000000000E+009, -3.75320765505E-001, +0.00000000000E+000
+1.38500000000E+009, -3.78272470448E-001, +0.00000000000E+000
+1.39000000000E+009, -3.75473810269E-001, +0.00000000000E+000
+1.39500000000E+009, -3.76649843539E-001, +0.00000000000E+000
+1.40000000000E+009, -3.74100830318E-001, +0.00000000000E+000
+1.40500000000E+009, -3.73847815560E-001, +0.00000000000E+000
+1.41000000000E+009, -3.76294709694E-001, +0.00000000000E+000
+1.41500000000E+009, -3.78609447020E-001, +0.00000000000E+000
+1.42000000000E+009, -3.78479768524E-001, +0.00000000000E+000
+1.42500000000E+009, -3.76934934217E-001, +0.00000000000E+000
+1.43000000000E+009, -3.78532437055E-001, +0.00000000000E+000
+1.43500000000E+009, -3.78365131449E-001, +0.00000000000E+000
+1.44000000000E+009, -3.84544527060E-001, +0.00000000000E+000
+1.44500000000E+009, -3.84509110725E-001, +0.00000000000E+000
+1.45000000000E+009, -3.87386454584E-001, +0.00000000000E+000
+1.45500000000E+009, -3.87618429971E-001, +0.00000000000E+000
+1.46000000000E+009, -3.89605248479E-001, +0.00000000000E+000
+1.46500000000E+009, -3.91100176749E-001, +0.00000000000E+000
+1.47000000000E+009, -3.94117335128E-001, +0.00000000000E+000
+1.47500000000E+009, -3.95792236934E-001, +0.00000000000E+000
+1.48000000000E+009, -3.96801589432E-001, +0.00000000000E+000
+1.48500000000E+009, -3.98786217814E-001, +0.00000000000E+000
+1.49000000000E+009, -4.05579115716E-001, +0.00000000000E+000
+1.49500000000E+009, -4.07219367602E-001, +0.00000000000E+000
+1.50000000000E+009, -4.11551233652E-001, +0.00000000000E+000
+1.50500000000E+009, -4.12187812064E-001, +0.00000000000E+000
+1.51000000000E+009, -4.15941440719E-001, +0.00000000000E+000
+1.51500000000E+009, -4.18394060758E-001, +0.00000000000E+000
+1.52000000000E+009, -4.22013567428E-001, +0.00000000000E+000
+1.52500000000E+009, -4.20640461839E-001, +0.00000000000E+000
+1.53000000000E+009, -4.28683080821E-001, +0.00000000000E+000
+1.53500000000E+009, -4.27896180879E-001, +0.00000000000E+000
+1.54000000000E+009, -4.30715802309E-001, +0.00000000000E+000
+1.54500000000E+009, -4.38197203939E-001, +0.00000000000E+000
+1.55000000000E+009, -4.37682368224E-001, +0.00000000000E+000
+1.55500000000E+009, -4.43602849584E-001, +0.00000000000E+000
+1.56000000000E+009, -4.45813230929E-001, +0.00000000000E+000
+1.56500000000E+009, -4.46508595514E-001, +0.00000000000E+000
+1.57000000000E+009, -4.49892716553E-001, +0.00000000000E+000
+1.57500000000E+009, -4.57372727114E-001, +0.00000000000E+000
+1.58000000000E+009, -4.61370111849E-001, +0.00000000000E+000
+1.58500000000E+009, -4.63957482325E-001, +0.00000000000E+000
+1.59000000000E+009, -4.71008455936E-001, +0.00000000000E+000
+1.59500000000E+009, -4.74598001235E-001, +0.00000000000E+000
+1.60000000000E+009, -4.76269411635E-001, +0.00000000000E+000
+1.60500000000E+009, -4.81517745154E-001, +0.00000000000E+000
+1.61000000000E+009, -4.88941383367E-001, +0.00000000000E+000
+1.61500000000E+009, -4.94769628730E-001, +0.00000000000E+000
+1.62000000000E+009, -4.97669315549E-001, +0.00000000000E+000
+1.62500000000E+009, -5.01539737932E-001, +0.00000000000E+000
+1.63000000000E+009, -5.05351172723E-001, +0.00000000000E+000
+1.63500000000E+009, -5.13022779510E-001, +0.00000000000E+000
+1.64000000000E+009, -5.17897794526E-001, +0.00000000000E+000
+1.64500000000E+009, -5.25990424979E-001, +0.00000000000E+000
+1.65000000000E+009, -5.20660228275E-001, +0.00000000000E+000
+1.65500000000E+009, -5.33980343909E-001, +0.00000000000E+000
+1.66000000000E+009, -5.36844380178E-001, +0.00000000000E+000
+1.66500000000E+009, -5.41239801629E-001, +0.00000000000E+000
+1.67000000000E+009, -5.44489232268E-001, +0.00000000000E+000
+1.67500000000E+009, -5.51657664372E-001, +0.00000000000E+000
+1.68000000000E+009, -5.57955381184E-001, +0.00000000000E+000
+1.68500000000E+009, -5.63936914711E-001, +0.00000000000E+000
+1.69000000000E+009, -5.63507876689E-001, +0.00000000000E+000
+1.69500000000E+009, -5.69112506167E-001, +0.00000000000E+000
+1.70000000000E+009, -5.79587671423E-001, +0.00000000000E+000
+1.70500000000E+009, -5.82483968332E-001, +0.00000000000E+000
+1.71000000000E+009, -5.84314747792E-001, +0.00000000000E+000
+1.71500000000E+009, -5.94021687838E-001, +0.00000000000E+000
+1.72000000000E+009, -5.95555795303E-001, +0.00000000000E+000
+1.72500000000E+009, -6.06792414989E-001, +0.00000000000E+000
+1.73000000000E+009, -6.10470364471E-001, +0.00000000000E+000
+1.73500000000E+009, -6.13165010118E-001, +0.00000000000E+000
+1.74000000000E+009, -6.21085236297E-001, +0.00000000000E+000
+1.74500000000E+009, -6.25703954292E-001, +0.00000000000E+000
+1.75000000000E+009, -6.31132255827E-001, +0.00000000000E+000
+1.75500000000E+009, -6.32882463750E-001, +0.00000000000E+000
+1.76000000000E+009, -6.39927605357E-001, +0.00000000000E+000
+1.76500000000E+009, -6.44762666170E-001, +0.00000000000E+000
+1.77000000000E+009, -6.45885982498E-001, +0.00000000000E+000
+1.77500000000E+009, -6.51023088694E-001, +0.00000000000E+000
+1.78000000000E+009, -6.54104330525E-001, +0.00000000000E+000
+1.78500000000E+009, -6.56688522924E-001, +0.00000000000E+000
+1.79000000000E+009, -6.64205382920E-001, +0.00000000000E+000
+1.79500000000E+009, -6.65375564665E-001, +0.00000000000E+000
+1.80000000000E+009, -6.69458275103E-001, +0.00000000000E+000
+1.80500000000E+009, -6.72935955705E-001, +0.00000000000E+000
+1.81000000000E+009, -6.74797191912E-001, +0.00000000000E+000
+1.81500000000E+009, -6.73627473130E-001, +0.00000000000E+000
+1.82000000000E+009, -6.82725979809E-001, +0.00000000000E+000
+1.82500000000E+009, -6.83353644994E-001, +0.00000000000E+000
+1.83000000000E+009, -6.90723669891E-001, +0.00000000000E+000
+1.83500000000E+009, -6.89454108722E-001, +0.00000000000E+000
+1.84000000000E+009, -6.95329539811E-001, +0.00000000000E+000
+1.84500000000E+009, -6.96907791227E-001, +0.00000000000E+000
+1.85000000000E+009, -6.99443270004E-001, +0.00000000000E+000
+1.85500000000E+009, -7.02313917051E-001, +0.00000000000E+000
+1.86000000000E+009, -7.04811794458E-001, +0.00000000000E+000
+1.86500000000E+009, -7.04475034331E-001, +0.00000000000E+000
+1.87000000000E+009, -7.06368537589E-001, +0.00000000000E+000
+1.87500000000E+009, -7.10267869236E-001, +0.00000000000E+000
+1.88000000000E+009, -7.09792889547E-001, +0.00000000000E+000
+1.88500000000E+009, -7.07864419432E-001, +0.00000000000E+000
+1.89000000000E+009, -7.10475555193E-001, +0.00000000000E+000
+1.89500000000E+009, -7.07194421250E-001, +0.00000000000E+000
+1.90000000000E+009, -7.13763646046E-001, +0.00000000000E+000
+1.90500000000E+009, -7.11989132626E-001, +0.00000000000E+000
+1.91000000000E+009, -7.12259216775E-001, +0.00000000000E+000
+1.91500000000E+009, -7.18414152460E-001, +0.00000000000E+000
+1.92000000000E+009, -7.12606812125E-001, +0.00000000000E+000
+1.92500000000E+009, -7.20140970133E-001, +0.00000000000E+000
+1.93000000000E+009, -7.19574616254E-001, +0.00000000000E+000
+1.93500000000E+009, -7.21613386910E-001, +0.00000000000E+000
+1.94000000000E+009, -7.23585982155E-001, +0.00000000000E+000
+1.94500000000E+009, -7.29044242833E-001, +0.00000000000E+000
+1.95000000000E+009, -7.26847651094E-001, +0.00000000000E+000
+1.95500000000E+009, -7.24963060629E-001, +0.00000000000E+000
+1.96000000000E+009, -7.28746288058E-001, +0.00000000000E+000
+1.96500000000E+009, -7.27133711691E-001, +0.00000000000E+000
+1.97000000000E+009, -7.34545875108E-001, +0.00000000000E+000
+1.97500000000E+009, -7.31258125555E-001, +0.00000000000E+000
+1.98000000000E+009, -7.30100222312E-001, +0.00000000000E+000
+1.98500000000E+009, -7.32633834431E-001, +0.00000000000E+000
+1.99000000000E+009, -7.30850433204E-001, +0.00000000000E+000
+1.99500000000E+009, -7.29547879594E-001, +0.00000000000E+000
+2.00000000000E+009, -7.31113391795E-001, +0.00000000000E+000
+2.00500000000E+009, -7.37114117798E-001, +0.00000000000E+000
+2.01000000000E+009, -7.31798673550E-001, +0.00000000000E+000
+2.01500000000E+009, -7.29760713492E-001, +0.00000000000E+000
+2.02000000000E+009, -7.31809898322E-001, +0.00000000000E+000
+2.02500000000E+009, -7.32667970322E-001, +0.00000000000E+000
+2.03000000000E+009, -7.27405065415E-001, +0.00000000000E+000
+2.03500000000E+009, -7.26205953885E-001, +0.00000000000E+000
+2.04000000000E+009, -7.23707874214E-001, +0.00000000000E+000
+2.04500000000E+009, -7.24180932312E-001, +0.00000000000E+000
+2.05000000000E+009, -7.27959022532E-001, +0.00000000000E+000
+2.05500000000E+009, -7.23537582195E-001, +0.00000000000E+000
+2.06000000000E+009, -7.21835556842E-001, +0.00000000000E+000
+2.06500000000E+009, -7.26108226602E-001, +0.00000000000E+000
+2.07000000000E+009, -7.22762716442E-001, +0.00000000000E+000
+2.07500000000E+009, -7.22239501871E-001, +0.00000000000E+000
+2.08000000000E+009, -7.16435267562E-001, +0.00000000000E+000
+2.08500000000E+009, -7.18501917579E-001, +0.00000000000E+000
+2.09000000000E+009, -7.16404807246E-001, +0.00000000000E+000
+2.09500000000E+009, -7.13705997152E-001, +0.00000000000E+000
+2.10000000000E+009, -7.15120618275E-001, +0.00000000000E+000
+2.10500000000E+009, -7.15430496587E-001, +0.00000000000E+000
+2.11000000000E+009, -7.11956165267E-001, +0.00000000000E+000
+2.11500000000E+009, -7.08028737786E-001, +0.00000000000E+000
+2.12000000000E+009, -7.13364964270E-001, +0.00000000000E+000
+2.12500000000E+009, -7.11442269280E-001, +0.00000000000E+000
+2.13000000000E+009, -7.06630239995E-001, +0.00000000000E+000
+2.13500000000E+009, -7.07470014071E-001, +0.00000000000E+000
+2.14000000000E+009, -7.08894558864E-001, +0.00000000000E+000
+2.14500000000E+009, -7.05027518228E-001, +0.00000000000E+000
+2.15000000000E+009, -7.01223611506E-001, +0.00000000000E+000
+2.15500000000E+009, -7.03415167738E-001, +0.00000000000E+000
+2.16000000000E+009, -7.04441343262E-001, +0.00000000000E+000
+2.16500000000E+009, -6.99813744585E-001, +0.00000000000E+000
+2.17000000000E+009, -6.98252513530E-001, +0.00000000000E+000
+2.17500000000E+009, -6.95118485933E-001, +0.00000000000E+000
+2.18000000000E+009, -6.96530867498E-001, +0.00000000000E+000
+2.18500000000E+009, -6.92882336247E-001, +0.00000000000E+000
+2.19000000000E+009, -6.94736410201E-001, +0.00000000000E+000
+2.19500000000E+009, -6.94886876111E-001, +0.00000000000E+000
+2.20000000000E+009, -6.96527783339E-001, +0.00000000000E+000
+2.20500000000E+009, -6.97508799945E-001, +0.00000000000E+000
+2.21000000000E+009, -6.97082756955E-001, +0.00000000000E+000
+2.21500000000E+009, -6.96082397452E-001, +0.00000000000E+000
+2.22000000000E+009, -6.97233166017E-001, +0.00000000000E+000
+2.22500000000E+009, -6.95422697923E-001, +0.00000000000E+000
+2.23000000000E+009, -6.95692248963E-001, +0.00000000000E+000
+2.23500000000E+009, -6.98649439699E-001, +0.00000000000E+000
+2.24000000000E+009, -6.94708652651E-001, +0.00000000000E+000
+2.24500000000E+009, -6.96905078616E-001, +0.00000000000E+000
+2.25000000000E+009, -6.97166589763E-001, +0.00000000000E+000
+2.25500000000E+009, -6.95773651749E-001, +0.00000000000E+000
+2.26000000000E+009, -6.95474716720E-001, +0.00000000000E+000
+2.26500000000E+009, -7.01610087809E-001, +0.00000000000E+000
+2.27000000000E+009, -7.03527210935E-001, +0.00000000000E+000
+2.27500000000E+009, -7.01645764315E-001, +0.00000000000E+000
+2.28000000000E+009, -7.04460589213E-001, +0.00000000000E+000
+2.28500000000E+009, -7.05819936490E-001, +0.00000000000E+000
+2.29000000000E+009, -7.06365204481E-001, +0.00000000000E+000
+2.29500000000E+009, -7.11932679612E-001, +0.00000000000E+000
+2.30000000000E+009, -7.14213383661E-001, +0.00000000000E+000
+2.30500000000E+009, -7.19107550753E-001, +0.00000000000E+000
+2.31000000000E+009, -7.19556236473E-001, +0.00000000000E+000
+2.31500000000E+009, -7.22874799998E-001, +0.00000000000E+000
+2.32000000000E+009, -7.23751427801E-001, +0.00000000000E+000
+2.32500000000E+009, -7.29766273692E-001, +0.00000000000E+000
+2.33000000000E+009, -7.31890225459E-001, +0.00000000000E+000
+2.33500000000E+009, -7.38089691257E-001, +0.00000000000E+000
+2.34000000000E+009, -7.39822619530E-001, +0.00000000000E+000
+2.34500000000E+009, -7.44283303237E-001, +0.00000000000E+000
+2.35000000000E+009, -7.45356767489E-001, +0.00000000000E+000
+2.35500000000E+009, -7.48318315207E-001, +0.00000000000E+000
+2.36000000000E+009, -7.55358059663E-001, +0.00000000000E+000
+2.36500000000E+009, -7.57555586894E-001, +0.00000000000E+000
+2.37000000000E+009, -7.62825618787E-001, +0.00000000000E+000
+2.37500000000E+009, -7.68575347804E-001, +0.00000000000E+000
+2.38000000000E+009, -7.73369184189E-001, +0.00000000000E+000
+2.38500000000E+009, -7.79312515315E-001, +0.00000000000E+000
+2.39000000000E+009, -7.83877365235E-001, +0.00000000000E+000
+2.39500000000E+009, -7.89025694171E-001, +0.00000000000E+000
+2.40000000000E+009, -7.92088824975E-001, +0.00000000000E+000
+2.40500000000E+009, -7.99614880179E-001, +0.00000000000E+000
+2.41000000000E+009, -8.07604877262E-001, +0.00000000000E+000
+2.41500000000E+009, -8.15428087096E-001, +0.00000000000E+000
+2.42000000000E+009, -8.18817259453E-001, +0.00000000000E+000
+2.42500000000E+009, -8.25893621468E-001, +0.00000000000E+000
+2.43000000000E+009, -8.35140457020E-001, +0.00000000000E+000
+2.43500000000E+009, -8.42621267758E-001, +0.00000000000E+000
+2.44000000000E+009, -8.46592128735E-001, +0.00000000000E+000
+2.44500000000E+009, -8.57087216152E-001, +0.00000000000E+000
+2.45000000000E+009, -8.63878086589E-001, +0.00000000000E+000
+2.45500000000E+009, -8.68646638852E-001, +0.00000000000E+000
+2.46000000000E+009, -8.79205081800E-001, +0.00000000000E+000
+2.46500000000E+009, -8.86907997425E-001, +0.00000000000E+000
+2.47000000000E+009, -8.93691894622E-001, +0.00000000000E+000
+2.47500000000E+009, -9.07965715078E-001, +0.00000000000E+000
+2.48000000000E+009, -9.12436243398E-001, +0.00000000000E+000
+2.48500000000E+009, -9.25602433331E-001, +0.00000000000E+000
+2.49000000000E+009, -9.36389733273E-001, +0.00000000000E+000
+2.49500000000E+009, -9.42207169240E-001, +0.00000000000E+000
+2.50000000000E+009, -9.52405330798E-001, +0.00000000000E+000
+2.50500000000E+009, -9.65870723937E-001, +0.00000000000E+000
+2.51000000000E+009, -9.74780326072E-001, +0.00000000000E+000
+2.51500000000E+009, -9.87480842339E-001, +0.00000000000E+000
+2.52000000000E+009, -9.98047165784E-001, +0.00000000000E+000
+2.52500000000E+009, -1.00856420762E+000, +0.00000000000E+000
+2.53000000000E+009, -1.01471192172E+000, +0.00000000000E+000
+2.53500000000E+009, -1.03560000097E+000, +0.00000000000E+000
+2.54000000000E+009, -1.04333156036E+000, +0.00000000000E+000
+2.54500000000E+009, -1.05522233529E+000, +0.00000000000E+000
+2.55000000000E+009, -1.06851840050E+000, +0.00000000000E+000
+2.55500000000E+009, -1.07795527284E+000, +0.00000000000E+000
+2.56000000000E+009, -1.09335241778E+000, +0.00000000000E+000
+2.56500000000E+009, -1.10513732243E+000, +0.00000000000E+000
+2.57000000000E+009, -1.12007446290E+000, +0.00000000000E+000
+2.57500000000E+009, -1.12680622429E+000, +0.00000000000E+000
+2.58000000000E+009, -1.14444254838E+000, +0.00000000000E+000
+2.58500000000E+009, -1.15300188721E+000, +0.00000000000E+000
+2.59000000000E+009, -1.17124832156E+000, +0.00000000000E+000
+2.59500000000E+009, -1.18363895575E+000, +0.00000000000E+000
+2.60000000000E+009, -1.19909392715E+000, +0.00000000000E+000
