"# Channel 1"
"# Trace 1"
Frequency, Formatted Data, Formatted Data
+1.00000000000E+009, -9.56279354492E+000, +0.00000000000E+000
+1.00500000000E+009, -9.62958527972E+000, +0.00000000000E+000
+1.01000000000E+009, -9.71028733399E+000, +0.00000000000E+000
+1.01500000000E+009, -9.77910120360E+000, +0.00000000000E+000
+1.02000000000E+009, -9.85963403876E+000, +0.00000000000E+000
+1.02500000000E+009, -9.94251314147E+000, +0.00000000000E+000
+1.03000000000E+009, -1.00149097552E+001, +0.00000000000E+000
+1.03500000000E+009, -1.01167135781E+001, +0.00000000000E+000
+1.04000000000E+009, -1.01796465790E+001, +0.00000000000E+000
+1.04500000000E+009, -1.02740331374E+001, +0.00000000000E+000
+1.05000000000E+009, -1.03512250654E+001, +0.00000000000E+000
+1.05500000000E+009, -1.04510796082E+001, +0.00000000000E+000
+1.06000000000E+009, -1.05292059186E+001, +0.00000000000E+000
+1.06500000000E+009, -1.06247619041E+001, +0.00000000000E+000
+1.07000000000E+009, -1.07229969376E+001, +0.00000000000E+000
+1.07500000000E+009, -1.08297899044E+001, +0.00000000000E+000
+1.08000000000E+009, -1.09085836381E+001, +0.00000000000E+000
+1.08500000000E+009, -1.10153414806E+001, +0.00000000000E+000
+1.09000000000E+009, -1.11012461749E+001, +0.00000000000E+000
+1.09500000000E+009, -1.12080035729E+001, +0.00000000000E+000
+1.10000000000E+009, -1.13024919803E+001, +0.00000000000E+000
+1.10500000000E+009, -1.14131854931E+001, +0.00000000000E+000
+1.11000000000E+009, -1.15224503444E+001, +0.00000000000E+000
+1.11500000000E+009, -1.16362854941E+001, +0.00000000000E+000
+1.12000000000E+009, -1.17517085020E+001, +0.00000000000E+000
+1.12500000000E+009, -1.18553499906E+001, +0.00000000000E+000
+1.13000000000E+009, -1.19963028181E+001, +0.00000000000E+000
+1.13500000000E+009, -1.20991179892E+001, +0.00000000000E+000
+1.14000000000E+009, -1.22342236820E+001, +0.00000000000E+000
+1.14500000000E+009, -1.23600291325E+001, +0.00000000000E+000
+1.15000000000E+009, -1.24898794982E+001, +0.00000000000E+000
+1.15500000000E+009, -1.26199549120E+001, +0.00000000000E+000
+1.16000000000E+009, -1.27432476192E+001, +0.00000000000E+000
+1.16500000000E+009, -1.28964313768E+001, +0.00000000000E+000
+1.17000000000E+009, -1.30379263788E+001, +0.00000000000E+000
+1.17500000000E+009, -1.31748509462E+001, +0.00000000000E+000
+1.18000000000E+009, -1.33382781428E+001, +0.00000000000E+000
+1.18500000000E+009, -1.34899075773E+001, +0.00000000000E+000
+1.19000000000E+009, -1.36484694595E+001, +0.00000000000E+000
+1.19500000000E+009, -1.38107450060E+001, +0.00000000000E+000
+1.20000000000E+009, -1.39773110804E+001, +0.00000000000E+000
+1.20500000000E+009, -1.41393350692E+001, +0.00000000000E+000
+1.21000000000E+009, -1.43028644691E+001, +0.00000000000E+000
+1.21500000000E+009, -1.44665460144E+001, +0.00000000000E+000
+1.22000000000E+009, -1.46626837661E+001, +0.00000000000E+000
+1.22500000000E+009, -1.48164955298E+001, +0.00000000000E+000
+1.23000000000E+009, -1.50571287110E+001, +0.00000000000E+000
+1.23500000000E+009, -1.52249681481E+001, +0.00000000000E+000
+1.24000000000E+009, -1.53889766923E+001, +0.00000000000E+000
+1.24500000000E+009, -1.56249847469E+001, +0.00000000000E+000
+1.25000000000E+009, -1.58106989558E+001, +0.00000000000E+000
+1.25500000000E+009, -1.60604519930E+001, +0.00000000000E+000
+1.26000000000E+009, -1.62716612601E+001, +0.00000000000E+000
+1.26500000000E+009, -1.64698606194E+001, +0.00000000000E+000
+1.27000000000E+009, -1.67202272708E+001, +0.00000000000E+000
+1.27500000000E+009, -1.69785683210E+001, +0.00000000000E+000
+1.28000000000E+009, -1.72376289414E+001, +0.00000000000E+000
+1.28500000000E+009, -1.75009161409E+001, +0.00000000000E+000
+1.29000000000E+009, -1.77393001072E+001, +0.00000000000E+000
+1.29500000000E+009, -1.80383572970E+001, +0.00000000000E+000
+1.30000000000E+009, -1.83300352277E+001, +0.00000000000E+000
+1.30500000000E+009, -1.86457733211E+001, +0.00000000000E+000
+1.31000000000E+009, -1.89152271847E+001, +0.00000000000E+000
+1.31500000000E+009, -1.92797067181E+001, +0.00000000000E+000
+1.32000000000E+009, -1.95937868733E+001, +0.00000000000E+000
+1.32500000000E+009, -1.98913354258E+001, +0.00000000000E+000
+1.33000000000E+009, -2.02743899793E+001, +0.00000000000E+000
+1.33500000000E+009, -2.06015430262E+001, +0.00000000000E+000
+1.34000000000E+009, -2.09939805027E+001, +0.00000000000E+000
+1.34500000000E+009, -2.14033908145E+001, +0.00000000000E+000
+1.35000000000E+009, -2.18305081393E+001, +0.00000000000E+000
+1.35500000000E+009, -2.22647432592E+001, +0.00000000000E+000
+1.36000000000E+009, -2.26570397358E+001, +0.00000000000E+000
+1.36500000000E+009, -2.30202296778E+001, +0.00000000000E+000
+1.37000000000E+009, -2.36466423223E+001, +0.00000000000E+000
+1.37500000000E+009, -2.41485473769E+001, +0.00000000000E+000
+1.38000000000E+009, -2.47002142667E+001, +0.00000000000E+000
+1.38500000000E+009, -2.51849744583E+001, +0.00000000000E+000
+1.39000000000E+009, -2.58501497389E+001, +0.00000000000E+000
+1.39500000000E+009, -2.65139312056E+001, +0.00000000000E+000
+1.40000000000E+009, -2.72383921328E+001, +0.00000000000E+000
+1.40500000000E+009, -2.80044678887E+001, +0.00000000000E+000
+1.41000000000E+009, -2.86222274030E+001, +0.00000000000E+000
+1.41500000000E+009, -2.95759523840E+001, +0.00000000000E+000
+1.42000000000E+009, -3.05517999142E+001, +0.00000000000E+000
+1.42500000000E+009, -3.14714149646E+001, +0.00000000000E+000
+1.43000000000E+009, -3.28392958254E+001, +0.00000000000E+000
+1.43500000000E+009, -3.38312547610E+001, +0.00000000000E+000
+1.44000000000E+009, -3.41743782957E+001, +0.00000000000E+000
+1.44500000000E+009, -3.50046129514E+001, +0.00000000000E+000
+1.45000000000E+009, -3.54656266399E+001, +0.00000000000E+000
+1.45500000000E+009, -3.55078163686E+001, +0.00000000000E+000
+1.46000000000E+009, -3.49125105417E+001, +0.00000000000E+000
+1.46500000000E+009, -3.41461713596E+001, +0.00000000000E+000
+1.47000000000E+009, -3.33219599273E+001, +0.00000000000E+000
+1.47500000000E+009, -3.23364671619E+001, +0.00000000000E+000
+1.48000000000E+009, -3.13674294428E+001, +0.00000000000E+000
+1.48500000000E+009, -3.05634202950E+001, +0.00000000000E+000
+1.49000000000E+009, -2.95513133032E+001, +0.00000000000E+000
+1.49500000000E+009, -2.88185493882E+001, +0.00000000000E+000
+1.50000000000E+009, -2.80637761763E+001, +0.00000000000E+000
+1.50500000000E+009, -2.73243144299E+001, +0.00000000000E+000
+1.51000000000E+009, -2.68790750376E+001, +0.00000000000E+000
+1.51500000000E+009, -2.61146822213E+001, +0.00000000000E+000
+1.52000000000E+009, -2.55818509535E+001, +0.00000000000E+000
+1.52500000000E+009, -2.51619814138E+001, +0.00000000000E+000
+1.53000000000E+009, -2.46344591051E+001, +0.00000000000E+000
+1.53500000000E+009, -2.42026861178E+001, +0.00000000000E+000
+1.54000000000E+009, -2.37293464817E+001, +0.00000000000E+000
+1.54500000000E+009, -2.33261101948E+001, +0.00000000000E+000
+1.55000000000E+009, -2.28806429698E+001, +0.00000000000E+000
+1.55500000000E+009, -2.25321230044E+001, +0.00000000000E+000
+1.56000000000E+009, -2.21821062792E+001, +0.00000000000E+000
+1.56500000000E+009, -2.19120764989E+001, +0.00000000000E+000
+1.57000000000E+009, -2.15817859820E+001, +0.00000000000E+000
+1.57500000000E+009, -2.12289573392E+001, +0.00000000000E+000
+1.58000000000E+009, -2.09166757413E+001, +0.00000000000E+000
+1.58500000000E+009, -2.06605173606E+001, +0.00000000000E+000
+1.59000000000E+009, -2.03888545629E+001, +0.00000000000E+000
+1.59500000000E+009, -2.00987158178E+001, +0.00000000000E+000
+1.60000000000E+009, -1.98466717125E+001, +0.00000000000E+000
+1.60500000000E+009, -1.96530251215E+001, +0.00000000000E+000
+1.61000000000E+009, -1.93619475778E+001, +0.00000000000E+000
+1.61500000000E+009, -1.91853471357E+001, +0.00000000000E+000
+1.62000000000E+009, -1.90012605764E+001, +0.00000000000E+000
+1.62500000000E+009, -1.87665338195E+001, +0.00000000000E+000
+1.63000000000E+009, -1.86332452136E+001, +0.00000000000E+000
+1.63500000000E+009, -1.83952332517E+001, +0.00000000000E+000
+1.64000000000E+009, -1.82397317832E+001, +0.00000000000E+000
+1.64500000000E+009, -1.80427970377E+001, +0.00000000000E+000
+1.65000000000E+009, -1.79171652925E+001, +0.00000000000E+000
+1.65500000000E+009, -1.77165708648E+001, +0.00000000000E+000
+1.66000000000E+009, -1.75879703792E+001, +0.00000000000E+000
+1.66500000000E+009, -1.74748590798E+001, +0.00000000000E+000
+1.67000000000E+009, -1.73034284923E+001, +0.00000000000E+000
+1.67500000000E+009, -1.72051935013E+001, +0.00000000000E+000
+1.68000000000E+009, -1.70235605480E+001, +0.00000000000E+000
+1.68500000000E+009, -1.68810613878E+001, +0.00000000000E+000
+1.69000000000E+009, -1.67830013169E+001, +0.00000000000E+000
+1.69500000000E+009, -1.66672791641E+001, +0.00000000000E+000
+1.70000000000E+009, -1.65223614660E+001, +0.00000000000E+000
+1.70500000000E+009, -1.64432140898E+001, +0.00000000000E+000
+1.71000000000E+009, -1.63602569673E+001, +0.00000000000E+000
+1.71500000000E+009, -1.62251544690E+001, +0.00000000000E+000
+1.72000000000E+009, -1.61560941277E+001, +0.00000000000E+000
+1.72500000000E+009, -1.60580465912E+001, +0.00000000000E+000
+1.73000000000E+009, -1.59864389104E+001, +0.00000000000E+000
+1.73500000000E+009, -1.59340186745E+001, +0.00000000000E+000
+1.74000000000E+009, -1.58211960413E+001, +0.00000000000E+000
+1.74500000000E+009, -1.57561437946E+001, +0.00000000000E+000
+1.75000000000E+009, -1.56719861407E+001, +0.00000000000E+000
+1.75500000000E+009, -1.55903820395E+001, +0.00000000000E+000
+1.76000000000E+009, -1.55240197132E+001, +0.00000000000E+000
+1.76500000000E+009, -1.54936265318E+001, +0.00000000000E+000
+1.77000000000E+009, -1.54509199938E+001, +0.00000000000E+000
+1.77500000000E+009, -1.53557446197E+001, +0.00000000000E+000
+1.78000000000E+009, -1.53194680851E+001, +0.00000000000E+000
+1.78500000000E+009, -1.52565157309E+001, +0.00000000000E+000
+1.79000000000E+009, -1.51829191373E+001, +0.00000000000E+000
+1.79500000000E+009, -1.51503886056E+001, +0.00000000000E+000
+1.80000000000E+009, -1.50930417271E+001, +0.00000000000E+000
+1.80500000000E+009, -1.50545945454E+001, +0.00000000000E+000
+1.81000000000E+009, -1.50118214753E+001, +0.00000000000E+000
+1.81500000000E+009, -1.49948887478E+001, +0.00000000000E+000
+1.82000000000E+009, -1.49464493425E+001, +0.00000000000E+000
+1.82500000000E+009, -1.49317630236E+001, +0.00000000000E+000
+1.83000000000E+009, -1.48986273634E+001, +0.00000000000E+000
+1.83500000000E+009, -1.48769537244E+001, +0.00000000000E+000
+1.84000000000E+009, -1.48589824412E+001, +0.00000000000E+000
+1.84500000000E+009, -1.48280285024E+001, +0.00000000000E+000
+1.85000000000E+009, -1.48436050502E+001, +0.00000000000E+000
+1.85500000000E+009, -1.48080568052E+001, +0.00000000000E+000
+1.86000000000E+009, -1.47795974735E+001, +0.00000000000E+000
+1.86500000000E+009, -1.48159642603E+001, +0.00000000000E+000
+1.87000000000E+009, -1.47824596485E+001, +0.00000000000E+000
+1.87500000000E+009, -1.47453791861E+001, +0.00000000000E+000
+1.88000000000E+009, -1.47479911033E+001, +0.00000000000E+000
+1.88500000000E+009, -1.47786793080E+001, +0.00000000000E+000
+1.89000000000E+009, -1.47474605501E+001, +0.00000000000E+000
+1.89500000000E+009, -1.47701440085E+001, +0.00000000000E+000
+1.90000000000E+009, -1.47322749811E+001, +0.00000000000E+000
+1.90500000000E+009, -1.47497063107E+001, +0.00000000000E+000
+1.91000000000E+009, -1.47524251389E+001, +0.00000000000E+000
+1.91500000000E+009, -1.47402386384E+001, +0.00000000000E+000
+1.92000000000E+009, -1.47566847457E+001, +0.00000000000E+000
+1.92500000000E+009, -1.47771583871E+001, +0.00000000000E+000
+1.93000000000E+009, -1.47989539246E+001, +0.00000000000E+000
+1.93500000000E+009, -1.48157539884E+001, +0.00000000000E+000
+1.94000000000E+009, -1.48512265414E+001, +0.00000000000E+000
+1.94500000000E+009, -1.48496153511E+001, +0.00000000000E+000
+1.95000000000E+009, -1.48913375013E+001, +0.00000000000E+000
+1.95500000000E+009, -1.49252946647E+001, +0.00000000000E+000
+1.96000000000E+009, -1.49713149094E+001, +0.00000000000E+000
+1.96500000000E+009, -1.49824760933E+001, +0.00000000000E+000
+1.97000000000E+009, -1.50105108568E+001, +0.00000000000E+000
+1.97500000000E+009, -1.50807226521E+001, +0.00000000000E+000
+1.98000000000E+009, -1.51469592151E+001, +0.00000000000E+000
+1.98500000000E+009, -1.51422474865E+001, +0.00000000000E+000
+1.99000000000E+009, -1.52363967098E+001, +0.00000000000E+000
+1.99500000000E+009, -1.52786886967E+001, +0.00000000000E+000
+2.00000000000E+009, -1.53128552369E+001, +0.00000000000E+000
+2.00500000000E+009, -1.53838457018E+001, +0.00000000000E+000
+2.01000000000E+009, -1.54537713140E+001, +0.00000000000E+000
+2.01500000000E+009, -1.55282522455E+001, +0.00000000000E+000
+2.02000000000E+009, -1.55698729846E+001, +0.00000000000E+000
+2.02500000000E+009, -1.56243885155E+001, +0.00000000000E+000
+2.03000000000E+009, -1.57279459304E+001, +0.00000000000E+000
+2.03500000000E+009, -1.57876020907E+001, +0.00000000000E+000
+2.04000000000E+009, -1.59152401127E+001, +0.00000000000E+000
+2.04500000000E+009, -1.59540071977E+001, +0.00000000000E+000
+2.05000000000E+009, -1.60107946367E+001, +0.00000000000E+000
+2.05500000000E+009, -1.61185337349E+001, +0.00000000000E+000
+2.06000000000E+009, -1.62246197925E+001, +0.00000000000E+000
+2.06500000000E+009, -1.62792504024E+001, +0.00000000000E+000
+2.07000000000E+009, -1.63773463175E+001, +0.00000000000E+000
+2.07500000000E+009, -1.64921947554E+001, +0.00000000000E+000
+2.08000000000E+009, -1.65966181529E+001, +0.00000000000E+000
+2.08500000000E+009, -1.67048997642E+001, +0.00000000000E+000
+2.09000000000E+009, -1.68057601457E+001, +0.00000000000E+000
+2.09500000000E+009, -1.69239552863E+001, +0.00000000000E+000
+2.10000000000E+009, -1.70334854768E+001, +0.00000000000E+000
+2.10500000000E+009, -1.71860543342E+001, +0.00000000000E+000
+2.11000000000E+009, -1.72902327204E+001, +0.00000000000E+000
+2.11500000000E+009, -1.74425579892E+001, +0.00000000000E+000
+2.12000000000E+009, -1.75282781826E+001, +0.00000000000E+000
+2.12500000000E+009, -1.76738529785E+001, +0.00000000000E+000
+2.13000000000E+009, -1.78633301079E+001, +0.00000000000E+000
+2.13500000000E+009, -1.80301592575E+001, +0.00000000000E+000
+2.14000000000E+009, -1.81354341036E+001, +0.00000000000E+000
+2.14500000000E+009, -1.83041493802E+001, +0.00000000000E+000
+2.15000000000E+009, -1.84928441058E+001, +0.00000000000E+000
+2.15500000000E+009, -1.86351512263E+001, +0.00000000000E+000
+2.16000000000E+009, -1.88171544406E+001, +0.00000000000E+000
+2.16500000000E+009, -1.90064104290E+001, +0.00000000000E+000
+2.17000000000E+009, -1.92325105089E+001, +0.00000000000E+000
+2.17500000000E+009, -1.94321642741E+001, +0.00000000000E+000
+2.18000000000E+009, -1.96483528836E+001, +0.00000000000E+000
+2.18500000000E+009, -1.98912401731E+001, +0.00000000000E+000
+2.19000000000E+009, -2.00499539960E+001, +0.00000000000E+000
+2.19500000000E+009, -2.03098566148E+001, +0.00000000000E+000
+2.20000000000E+009, -2.05664304935E+001, +0.00000000000E+000
+2.20500000000E+009, -2.08276510858E+001, +0.00000000000E+000
+2.21000000000E+009, -2.10455889610E+001, +0.00000000000E+000
+2.21500000000E+009, -2.13643691652E+001, +0.00000000000E+000
+2.22000000000E+009, -2.15892171315E+001, +0.00000000000E+000
+2.22500000000E+009, -2.18884842299E+001, +0.00000000000E+000
+2.23000000000E+009, -2.22909453229E+001, +0.00000000000E+000
+2.23500000000E+009, -2.25641715712E+001, +0.00000000000E+000
+2.24000000000E+009, -2.27872231237E+001, +0.00000000000E+000
+2.24500000000E+009, -2.31684569813E+001, +0.00000000000E+000
+2.25000000000E+009, -2.35887658283E+001, +0.00000000000E+000
+2.25500000000E+009, -2.38897732184E+001, +0.00000000000E+000
+2.26000000000E+009, -2.42982105716E+001, +0.00000000000E+000
+2.26500000000E+009, -2.45975317362E+001, +0.00000000000E+000
+2.27000000000E+009, -2.49609333050E+001, +0.00000000000E+000
+2.27500000000E+009, -2.54972131221E+001, +0.00000000000E+000
+2.28000000000E+009, -2.59681503147E+001, +0.00000000000E+000
+2.28500000000E+009, -2.63519457001E+001, +0.00000000000E+000
+2.29000000000E+009, -2.68507220003E+001, +0.00000000000E+000
+2.29500000000E+009, -2.72392360067E+001, +0.00000000000E+000
+2.30000000000E+009, -2.79078615722E+001, +0.00000000000E+000
+2.30500000000E+009, -2.81979705695E+001, +0.00000000000E+000
+2.31000000000E+009, -2.87466567093E+001, +0.00000000000E+000
+2.31500000000E+009, -2.90456106431E+001, +0.00000000000E+000
+2.32000000000E+009, -2.96456797624E+001, +0.00000000000E+000
+2.32500000000E+009, -2.99703569005E+001, +0.00000000000E+000
+2.33000000000E+009, -3.03053500261E+001, +0.00000000000E+000
+2.33500000000E+009, -3.03110207166E+001, +0.00000000000E+000
+2.34000000000E+009, -3.07339794331E+001, +0.00000000000E+000
+2.34500000000E+009, -3.05854449749E+001, +0.00000000000E+000
+2.35000000000E+009, -3.03099445327E+001, +0.00000000000E+000
+2.35500000000E+009, -3.00513552094E+001, +0.00000000000E+000
+2.36000000000E+009, -2.95482857446E+001, +0.00000000000E+000
+2.36500000000E+009, -2.92229266197E+001, +0.00000000000E+000
+2.37000000000E+009, -2.87829761518E+001, +0.00000000000E+000
+2.37500000000E+009, -2.82813633643E+001, +0.00000000000E+000
+2.38000000000E+009, -2.77941252894E+001, +0.00000000000E+000
+2.38500000000E+009, -2.72567304966E+001, +0.00000000000E+000
+2.39000000000E+009, -2.68428391178E+001, +0.00000000000E+000
+2.39500000000E+009, -2.62338419006E+001, +0.00000000000E+000
+2.40000000000E+009, -2.57692201660E+001, +0.00000000000E+000
+2.40500000000E+009, -2.51920794480E+001, +0.00000000000E+000
+2.41000000000E+009, -2.47672885169E+001, +0.00000000000E+000
+2.41500000000E+009, -2.42844017232E+001, +0.00000000000E+000
+2.42000000000E+009, -2.39047139042E+001, +0.00000000000E+000
+2.42500000000E+009, -2.34888467267E+001, +0.00000000000E+000
+2.43000000000E+009, -2.30236497246E+001, +0.00000000000E+000
+2.43500000000E+009, -2.26182162102E+001, +0.00000000000E+000
+2.44000000000E+009, -2.22862302875E+001, +0.00000000000E+000
+2.44500000000E+009, -2.19236010475E+001, +0.00000000000E+000
+2.45000000000E+009, -2.15904148677E+001, +0.00000000000E+000
+2.45500000000E+009, -2.11930605760E+001, +0.00000000000E+000
+2.46000000000E+009, -2.09637585780E+001, +0.00000000000E+000
+2.46500000000E+009, -2.06047867851E+001, +0.00000000000E+000
+2.47000000000E+009, -2.03625097710E+001, +0.00000000000E+000
+2.47500000000E+009, -2.00222313147E+001, +0.00000000000E+000
+2.48000000000E+009, -1.97295671350E+001, +0.00000000000E+000
+2.48500000000E+009, -1.95602693604E+001, +0.00000000000E+000
+2.49000000000E+009, -1.92542243001E+001, +0.00000000000E+000
+2.49500000000E+009, -1.89289134043E+001, +0.00000000000E+000
+2.50000000000E+009, -1.87479241598E+001, +0.00000000000E+000
+2.50500000000E+009, -1.85085427936E+001, +0.00000000000E+000
+2.51000000000E+009, -1.82944818113E+001, +0.00000000000E+000
+2.51500000000E+009, -1.81316417664E+001, +0.00000000000E+000
+2.52000000000E+009, -1.78291940848E+001, +0.00000000000E+000
+2.52500000000E+009, -1.76763539471E+001, +0.00000000000E+000
+2.53000000000E+009, -1.74024460863E+001, +0.00000000000E+000
+2.53500000000E+009, -1.73176813921E+001, +0.00000000000E+000
+2.54000000000E+009, -1.70877468795E+001, +0.00000000000E+000
+2.54500000000E+009, -1.69217936501E+001, +0.00000000000E+000
+2.55000000000E+009, -1.67439305235E+001, +0.00000000000E+000
+2.55500000000E+009, -1.66056958927E+001, +0.00000000000E+000
+2.56000000000E+009, -1.64094481387E+001, +0.00000000000E+000
+2.56500000000E+009, -1.62685505926E+001, +0.00000000000E+000
+2.57000000000E+009, -1.60981919837E+001, +0.00000000000E+000
+2.57500000000E+009, -1.59388287835E+001, +0.00000000000E+000
+2.58000000000E+009, -1.58039788681E+001, +0.00000000000E+000
+2.58500000000E+009, -1.56498668591E+001, +0.00000000000E+000
+2.59000000000E+009, -1.54753041428E+001, +0.00000000000E+000
+2.59500000000E+009, -1.53694259400E+001, +0.00000000000E+000
+2.60000000000E+009, -1.52661476622E+001, +0.00000000000E+000
