Frequency (Hz),Real Part,Imaginary Part
1600000000.0,-0.781088,0.528211
1607000000.0,-0.761933,0.55897
1614000000.0,-0.738807,0.59197
1621000000.0,-0.708307,0.634996
1628000000.0,-0.675439,0.658348
1635000000.0,-0.641324,0.689427
1642000000.0,-0.603298,0.717626
1649000000.0,-0.562663,0.746975
1656000000.0,-0.522888,0.772266
1663000000.0,-0.498664,0.793953
1670000000.0,-0.458075,0.813766
1677000000.0,-0.413873,0.834561
1684000000.0,-0.376164,0.853524
1691000000.0,-0.335667,0.868809
1698000000.0,-0.289925,0.885027
1705000000.0,-0.244293,0.901821
1712000000.0,-0.202305,0.9082
1719000000.0,-0.163162,0.913234
1726000000.0,-0.150389,0.921237
1733000000.0,-0.077662,0.922159
1740000000.0,-0.027915,0.924222
1747000000.0,0.012464,0.919236
1754000000.0,0.056853,0.912391
1761000000.0,0.102015,0.906917
1768000000.0,0.138558,0.896795
1775000000.0,0.217902,0.876454
1782000000.0,0.226209,0.877178
1789000000.0,0.259933,0.863104
1796000000.0,0.304383,0.843105
1803000000.0,0.343919,0.828159
1810000000.0,0.390137,0.801539
1817000000.0,0.417831,0.791497
1824000000.0,0.453689,0.77075
1831000000.0,0.495689,0.736618
1838000000.0,0.52387,0.711694
1845000000.0,0.547231,0.681911
1852000000.0,0.585257,0.651485
1859000000.0,0.607493,0.613966
1866000000.0,0.632482,0.588532
1873000000.0,0.655214,0.55236
1880000000.0,0.695404,0.506121
1887000000.0,0.715651,0.467471
1894000000.0,0.734617,0.431443
1901000000.0,0.752838,0.395511
1908000000.0,0.760918,0.359509
1915000000.0,0.772579,0.310443
1922000000.0,0.78244,0.263989
1929000000.0,0.787276,0.223611
1936000000.0,0.789746,0.189224
1943000000.0,0.794138,0.148997
1950000000.0,0.794541,0.100394
1957000000.0,0.788365,0.058177
1964000000.0,0.774234,0.126285
1971000000.0,0.765104,-0.028409
1978000000.0,0.751619,-0.066524
1985000000.0,0.731992,-0.106861
1992000000.0,0.714633,-0.135005
1999000000.0,0.688129,-0.180109
2006000000.0,0.663777,-0.200293
2013000000.0,0.634816,-0.230031
2020000000.0,0.614515,-0.240587
2027000000.0,0.587251,-0.256616
2034000000.0,0.560912,-0.264362
2041000000.0,0.535796,-0.269612
2048000000.0,0.516379,-0.275744
2055000000.0,0.500566,-0.281521
2062000000.0,0.486498,-0.284946
2069000000.0,0.474187,-0.289348
2076000000.0,0.471029,-0.289135
2083000000.0,0.463693,-0.299049
2090000000.0,0.464085,-0.30949
2097000000.0,0.465869,-0.316705
2104000000.0,0.462397,-0.339768
2111000000.0,0.460649,-0.361953
2118000000.0,0.459259,-0.38163
2125000000.0,0.451287,-0.409801
2132000000.0,0.442012,-0.433468
2139000000.0,0.419274,-0.462325
2146000000.0,0.394431,-0.49532
2153000000.0,0.435749,-0.469957
2160000000.0,0.337885,-0.538645
2167000000.0,0.303544,-0.559235
2174000000.0,0.260664,-0.575117
2181000000.0,0.223675,-0.585634
2188000000.0,0.174331,-0.594629
2195000000.0,0.137976,-0.592147
2202000000.0,0.105361,-0.584052
2209000000.0,0.063991,-0.570726
2216000000.0,0.037577,-0.556418
2223000000.0,0.00105,-0.536921
2230000000.0,-0.020147,-0.513717
2237000000.0,-0.038922,-0.489814
2244000000.0,-0.058387,-0.462632
2251000000.0,-0.072945,-0.436338
2258000000.0,-0.071768,-0.409434
2265000000.0,-0.082941,-0.376144
2272000000.0,-0.065447,-0.356641
2279000000.0,-0.055988,-0.334962
2286000000.0,-0.043019,-0.320687
2293000000.0,-0.031774,-0.309903
2300000000.0,-0.014312,-0.306039
2307000000.0,0.003137,-0.30814
2314000000.0,0.028183,-0.317389
2321000000.0,0.046027,-0.331713
2328000000.0,0.064305,-0.35307
2335000000.0,0.080549,-0.385467
2342000000.0,0.089774,-0.419628
2349000000.0,0.088499,-0.4607
2356000000.0,0.075918,-0.504305
2363000000.0,0.057925,-0.544567
2370000000.0,0.019071,-0.584556
2377000000.0,-0.021159,-0.61961
2384000000.0,-0.062447,-0.65137
2391000000.0,-0.120874,-0.668256
2398000000.0,-0.182494,-0.671861
2405000000.0,-0.237348,-0.679376
2412000000.0,-0.291817,-0.680992
2419000000.0,-0.349774,-0.666368
2426000000.0,-0.403033,-0.646271
2433000000.0,-0.453551,-0.623752
2440000000.0,-0.503002,-0.600837
2447000000.0,-0.55074,-0.563486
2454000000.0,-0.58653,-0.531999
2461000000.0,-0.622071,-0.493152
2468000000.0,-0.652861,-0.457936
2475000000.0,-0.680605,-0.412748
2482000000.0,-0.70766,-0.367233
2489000000.0,-0.724981,-0.317814
2496000000.0,-0.739554,-0.281093
2503000000.0,-0.757078,-0.236066
2510000000.0,-0.75968,-0.18624
2517000000.0,-0.769488,-0.148174
2524000000.0,-0.771135,-0.096311
2531000000.0,-0.775102,-0.043134
2538000000.0,-0.769908,-0.009231
2545000000.0,-0.76441,0.037353
2552000000.0,-0.75035,0.076735
2559000000.0,-0.740604,0.129331
2566000000.0,-0.718884,0.184261
2573000000.0,-0.695867,0.224327
2580000000.0,-0.671515,0.260931
2587000000.0,-0.648831,0.28852
2594000000.0,-0.621174,0.317277
2601000000.0,-0.582822,0.34609
2608000000.0,-0.539905,0.367989
2615000000.0,-0.501623,0.388873
2622000000.0,-0.468336,0.390027
2629000000.0,-0.433233,0.396733
2636000000.0,-0.385154,0.4019
2643000000.0,-0.358597,0.39287
2650000000.0,-0.337791,0.391323
2657000000.0,-0.315441,0.375224
2664000000.0,-0.304443,0.366551
2671000000.0,-0.295948,0.353276
2678000000.0,-0.287123,0.351519
2685000000.0,-0.28404,0.343122
2692000000.0,-0.280317,0.344732
2699000000.0,-0.282602,0.343664
2706000000.0,-0.289481,0.350483
2713000000.0,-0.293701,0.351616
2720000000.0,-0.29974,0.3635
2727000000.0,-0.303077,0.370765
2734000000.0,-0.308985,0.388683
2741000000.0,-0.307415,0.403705
2748000000.0,-0.298471,0.425001
2755000000.0,-0.30293,0.444425
2762000000.0,-0.290299,0.471935
2769000000.0,-0.27623,0.494426
2776000000.0,-0.230141,0.526234
2783000000.0,-0.224117,0.541721
2790000000.0,-0.199599,0.562486
2797000000.0,-0.169037,0.581885
2804000000.0,-0.140513,0.606207
2811000000.0,-0.118284,0.624973
2818000000.0,-0.047405,0.644781
2825000000.0,-0.053739,0.64863
2832000000.0,-0.022309,0.65572
2839000000.0,0.016915,0.662182
2846000000.0,0.086675,0.65115
2853000000.0,0.076642,0.655636
2860000000.0,0.115019,0.651345
2867000000.0,0.151134,0.633488
2874000000.0,0.188483,0.620061
2881000000.0,0.216661,0.609177
2888000000.0,0.254867,0.597208
2895000000.0,0.276662,0.57892
2902000000.0,0.29443,0.569309
2909000000.0,0.32054,0.551807
2916000000.0,0.348915,0.526557
2923000000.0,0.372086,0.509015
2930000000.0,0.387458,0.491763
2937000000.0,0.402237,0.477568
2944000000.0,0.427592,0.451108
2951000000.0,0.438534,0.433134
2958000000.0,0.451234,0.417535
2965000000.0,0.463483,0.392793
2972000000.0,0.480902,0.369915
2979000000.0,0.444107,0.414961
2986000000.0,0.503735,0.321576
2993000000.0,0.520409,0.292847
3000000000.0,0.528838,0.27573
