Frequency (Hz),Real Part,Imaginary Part
1600000000.0,-0.76677,0.549509
1607000000.0,-0.747364,0.579414
1614000000.0,-0.716383,0.618519
1621000000.0,-0.688903,0.642113
1628000000.0,-0.656662,0.67786
1635000000.0,-0.616757,0.714334
1642000000.0,-0.580098,0.739406
1649000000.0,-0.540967,0.763726
1656000000.0,-0.502612,0.786715
1663000000.0,-0.466209,0.809282
1670000000.0,-0.427049,0.828932
1677000000.0,-0.391911,0.847874
1684000000.0,-0.348647,0.861231
1691000000.0,-0.303306,0.877165
1698000000.0,-0.261084,0.890112
1705000000.0,-0.206938,0.904469
1712000000.0,-0.17509,0.909831
1719000000.0,-0.123683,0.91356
1726000000.0,-0.086904,0.919283
1733000000.0,-0.046302,0.920352
1740000000.0,0.000159,0.918263
1747000000.0,0.0403,0.915458
1754000000.0,0.081698,0.908922
1761000000.0,0.124005,0.898904
1768000000.0,0.167861,0.889995
1775000000.0,0.214083,0.876039
1782000000.0,0.248472,0.862843
1789000000.0,0.286743,0.847731
1796000000.0,0.321568,0.831038
1803000000.0,0.371012,0.812674
1810000000.0,0.403019,0.7905
1817000000.0,0.441459,0.76759
1824000000.0,0.476207,0.749788
1831000000.0,0.508759,0.719476
1838000000.0,0.542341,0.68881
1845000000.0,0.57149,0.657278
1852000000.0,0.604351,0.621324
1859000000.0,0.622567,0.588039
1866000000.0,0.644446,0.571206
1873000000.0,0.674549,0.526165
1880000000.0,0.701948,0.491312
1887000000.0,0.71649,0.461339
1894000000.0,0.746421,0.408214
1901000000.0,0.760297,0.375222
1908000000.0,0.774054,0.32904
1915000000.0,0.765065,0.330388
1922000000.0,0.785162,0.252673
1929000000.0,0.796518,0.205853
1936000000.0,0.797149,0.167561
1943000000.0,0.799538,0.122981
1950000000.0,0.797203,0.08827
1957000000.0,0.796309,0.036037
1964000000.0,0.784116,-0.00747
1971000000.0,0.77039,-0.039828
1978000000.0,0.755943,-0.084528
1985000000.0,0.738348,-0.118245
1992000000.0,0.718862,-0.158779
1999000000.0,0.697736,-0.195694
2006000000.0,0.676464,-0.21496
2013000000.0,0.650464,-0.244351
2020000000.0,0.620956,-0.268719
2027000000.0,0.591423,-0.289634
2034000000.0,0.563158,-0.304344
2041000000.0,0.541784,-0.307938
2048000000.0,0.517102,-0.321391
2055000000.0,0.495647,-0.325216
2062000000.0,0.473996,-0.334425
2069000000.0,0.461455,-0.335576
2076000000.0,0.447256,-0.342089
2083000000.0,0.438376,-0.34593
2090000000.0,0.431418,-0.351676
2097000000.0,0.426956,-0.359719
2104000000.0,0.423156,-0.372192
2111000000.0,0.420903,-0.388253
2118000000.0,0.413948,-0.406659
2125000000.0,0.405102,-0.428557
2132000000.0,0.397625,-0.447847
2139000000.0,0.366533,-0.48179
2146000000.0,0.352181,-0.497435
2153000000.0,0.318436,-0.520392
2160000000.0,0.290284,-0.538998
2167000000.0,0.253572,-0.553935
2174000000.0,0.208851,-0.565328
2181000000.0,0.174314,-0.570818
2188000000.0,0.133537,-0.571005
2195000000.0,0.094568,-0.56443
2202000000.0,0.063769,-0.553997
2209000000.0,0.026781,-0.538178
2216000000.0,0.010664,-0.520221
2223000000.0,-0.016924,-0.497574
2230000000.0,-0.03723,-0.47433
2237000000.0,-0.050983,-0.447304
2244000000.0,-0.062287,-0.421553
2251000000.0,-0.068787,-0.39913
2258000000.0,-0.062903,-0.371753
2265000000.0,-0.057243,-0.349408
2272000000.0,-0.048357,-0.325709
2279000000.0,-0.030032,-0.309696
2286000000.0,-0.014761,-0.300525
2293000000.0,0.004429,-0.298491
2300000000.0,0.023667,-0.301881
2307000000.0,0.04445,-0.313307
2314000000.0,0.06356,-0.334007
2321000000.0,0.084159,-0.360964
2328000000.0,0.098974,-0.392257
2335000000.0,0.10431,-0.435339
2342000000.0,0.098424,-0.477055
2349000000.0,0.093693,-0.522447
2356000000.0,0.054561,-0.567083
2363000000.0,0.014763,-0.601801
2370000000.0,-0.03227,-0.634475
2377000000.0,-0.079413,-0.65777
2384000000.0,-0.14147,-0.674162
2391000000.0,-0.194978,-0.682431
2398000000.0,-0.257411,-0.672722
2405000000.0,-0.32191,-0.668811
2412000000.0,-0.364448,-0.662383
2419000000.0,-0.421049,-0.637365
2426000000.0,-0.474124,-0.607413
2433000000.0,-0.519483,-0.575721
2440000000.0,-0.553673,-0.552848
2447000000.0,-0.595188,-0.509246
2454000000.0,-0.63264,-0.463341
2461000000.0,-0.652996,-0.433817
2468000000.0,-0.686455,-0.383772
2475000000.0,-0.705471,-0.343387
2482000000.0,-0.721558,-0.29705
2489000000.0,-0.737827,-0.24742
2496000000.0,-0.74656,-0.205539
2503000000.0,-0.748797,-0.173794
2510000000.0,-0.755667,-0.121663
2517000000.0,-0.751696,-0.085685
2524000000.0,-0.751315,-0.022694
2531000000.0,-0.744346,0.009216
2538000000.0,-0.739379,0.052843
2545000000.0,-0.725262,0.097292
2552000000.0,-0.715141,0.12851
2559000000.0,-0.687292,0.178211
2566000000.0,-0.666664,0.220532
2573000000.0,-0.63639,0.264012
2580000000.0,-0.609501,0.288865
2587000000.0,-0.571181,0.323793
2594000000.0,-0.541045,0.334042
2601000000.0,-0.50377,0.354677
2608000000.0,-0.46432,0.365475
2615000000.0,-0.432559,0.364851
2622000000.0,-0.395735,0.375143
2629000000.0,-0.368054,0.362669
2636000000.0,-0.339979,0.362727
2643000000.0,-0.319001,0.353984
2650000000.0,-0.311603,0.339823
2657000000.0,-0.30145,0.335829
2664000000.0,-0.298602,0.32809
2671000000.0,-0.304382,0.319291
2678000000.0,-0.299287,0.318571
2685000000.0,-0.299093,0.322294
2692000000.0,-0.30252,0.326112
2699000000.0,-0.303161,0.333576
2706000000.0,-0.307602,0.345183
2713000000.0,-0.31761,0.356491
2720000000.0,-0.324513,0.368237
2727000000.0,-0.319707,0.389056
2734000000.0,-0.320512,0.41321
2741000000.0,-0.322051,0.430637
2748000000.0,-0.310557,0.45128
2755000000.0,-0.300822,0.475073
2762000000.0,-0.28411,0.500072
2769000000.0,-0.2611,0.522213
2776000000.0,-0.228793,0.547924
2783000000.0,-0.203122,0.566161
2790000000.0,-0.166341,0.591454
2797000000.0,-0.150277,0.609579
2804000000.0,-0.099937,0.625613
2811000000.0,-0.073444,0.635836
2818000000.0,-0.033373,0.650181
2825000000.0,-0.007402,0.661925
2832000000.0,0.024799,0.656997
2839000000.0,0.062377,0.660548
2846000000.0,0.095327,0.655306
2853000000.0,0.122599,0.651068
2860000000.0,0.161248,0.635572
2867000000.0,0.197388,0.622333
2874000000.0,0.231023,0.604715
2881000000.0,0.244386,0.595032
2888000000.0,0.279425,0.569207
2895000000.0,0.305686,0.557237
2902000000.0,0.328958,0.535774
2909000000.0,0.350036,0.516272
2916000000.0,0.367497,0.496162
2923000000.0,0.397603,0.461275
2930000000.0,0.404887,0.45652
2937000000.0,0.432688,0.42382
2944000000.0,0.440653,0.412301
2951000000.0,0.450983,0.390797
2958000000.0,0.469775,0.36216
2965000000.0,0.478722,0.343124
2972000000.0,0.486443,0.326307
2979000000.0,0.452371,0.375369
2986000000.0,0.513321,0.275695
2993000000.0,0.516658,0.259083
3000000000.0,0.525366,0.237282
