Freq (Hz),s21avg
2000000000.0,-0.399707485861744
2001001000.7927928,-0.4151424270828938
2002002001.5855856,-0.4303440757823906
2003003002.3783784,-0.44525775402547335
2004004003.1711712,-0.4601714322685557
2005005003.963964,-0.475085110511638
2006006004.7567568,-0.4899987887547201
2007007005.5495496,-0.5050034747464857
2008008006.3423424,-0.5200534639339843
2009009007.1351352,-0.5351034531214829
2010010007.927928,-0.5501534423089812
2011011008.7207208,-0.5652034314964798
2012012009.5135136,-0.5798992286801855
2013013010.3063064,-0.5945502379032125
2014014011.0990992,-0.6092012471262394
2015015011.891892,-0.623852256349266
2016016012.6846848,-0.6384606081049815
2017017013.4774776,-0.6527160530321546
2018018014.2702703,-0.6669714979593268
2019019015.0630631,-0.6812269428864992
2020020015.855856,-0.6954823878136718
2021021016.6486487,-0.7095527555891615
2022022017.4414415,-0.7232438294488558
2023023018.2342343,-0.7369349033085502
2024024019.0270271,-0.7506259771682444
2025025019.81982,-0.764317051027939
2026026020.6126127,-0.7775641643934268
2027027021.4054055,-0.7904451370692671
2028028022.1981983,-0.803326109745108
2029029022.9909909,-0.8162070824209443
2030030023.7837837,-0.8290880550967854
2031031024.5765765,-0.8442585449341661
2032032025.3693693,-0.8601201683660712
2033033026.162162,-0.8759817917979756
2034034026.9549549,-0.8918434152298802
2035035027.7477477,-0.9077050386617844
2036036028.5405405,-0.9219494923357495
2037037029.3333333,-0.9361746724781486
2038038030.126126,-0.9503998526205477
2039039030.9189188,-0.9646250327629471
2040040031.7117116,-0.979480300277951
2041041032.5045044,-0.9967301224545688
2042042033.2972972,-1.0139799446311868
2043043034.09009,-1.0312297668078036
2044044034.8828828,-1.0484795889844218
2045045035.6756756,-1.065347616600686
2046046036.4684684,-1.0817062568009468
2047047037.2612612,-1.0980648970012081
2048048038.054054,-1.114423537201469
2049049038.8468468,-1.1307821774017295
2050050039.6396396,-1.1488613997717743
2051051040.4324324,-1.1678731737718655
2052052041.2252252,-1.1868849477719567
2053053042.018018,-1.2058967217720495
2054054042.8108108,-1.2249084957721412
2055055043.6036036,-1.2443138096186142
2056056044.3963964,-1.2637786547045622
2057057045.1891892,-1.2832434997905096
2058058045.981982,-1.3027083448764571
2059059046.7747748,-1.3224154090946925
2060060047.5675676,-1.3446109985060615
2061061048.3603604,-1.3668065879174296
2062062049.1531532,-1.3890021773287988
2063063049.945946,-1.4111977667401678
2064064050.7387388,-1.433995723185326
2065065051.5315316,-1.4581420053628518
2066066052.3243244,-1.482288287540377
2067067053.1171172,-1.506434569717902
2068068053.90991,-1.5305808518954278
2069069054.7027028,-1.5556339993196724
2070070055.4954956,-1.5814949320715432
2071071056.2882884,-1.6073558648234163
2072072057.0810812,-1.6332167975752874
2073073057.873874,-1.6590777303271587
2074074058.6666667,-1.6859279693677973
2075075059.4594595,-1.7131097597052116
2076076060.2522523,-1.7402915500426268
2077077061.0450451,-1.7674733403800416
2078078061.837838,-1.7946551307174572
2079079062.6306307,-1.8270431845092225
2080080063.4234235,-1.8595973325395627
2081081064.2162163,-1.8921514805699031
2082082065.009009,-1.924705628600236
2083083065.8018017,-1.9572469524949636
2084084066.5945945,-1.9897333122442595
2085085067.3873873,-2.0222196719935566
2086086068.18018,-2.0547060317428523
2087087068.9729729,-2.0871923914921497
2088088069.7657657,-2.1206663232468146
2089089070.5585585,-2.1555656624372905
2090090071.3513513,-2.190465001627764
2091091072.144144,-2.2253643408182393
2092092072.9369369,-2.2602636800087144
2093093073.7297297,-2.2976830145934413
2094094074.5225224,-2.336586346465898
2095095075.3153152,-2.375489678338355
2096096076.108108,-2.4143930102108104
2097097076.9009008,-2.453296342083268
2098098077.6936936,-2.4955466287733348
2099099078.4864864,-2.5383900283405256
2100100079.2792792,-2.581233427907719
2101101080.072072,-2.6240768274749113
2102102080.8648648,-2.667166860202778
2103103081.6576576,-2.713555774571841
2104104082.4504504,-2.7599446889409043
2105105083.2432432,-2.806333603309964
2106106084.036036,-2.8527225176790263
2107107084.8288288,-2.9001724648287563
2108108085.6216216,-2.9502244364596644
2109109086.4144144,-3.0002764080905733
2110110087.2072072,-3.0503283797214804
2111111088.0,-3.10038035135239
2112112088.7927928,-3.1511426277838006
2113113089.5855856,-3.2025880276767813
2114114090.3783784,-3.254033427569759
2115115091.1711712,-3.3054788274627405
2116116091.963964,-3.3569242273557194
2117117092.7567568,-3.4119461609333346
2118118093.5495496,-3.4682919350175148
2119119094.3423424,-3.524637709101694
2120120095.1351352,-3.5809834831858773
2121121095.927928,-3.6373292572700566
2122122096.7207208,-3.6959129959282504
2123123097.5135136,-3.7546146591048757
2124124098.3063064,-3.8133163222814987
2125125099.0990992,-3.87201798545812
2126126099.891892,-3.931009076666791
2127127100.6846848,-3.991412852317604
2128128101.4774776,-4.051816627968417
2129129102.2702703,-4.11222040361923
2130130103.0630631,-4.172624179270043
2131131103.855856,-4.234216104088659
2132132104.6486487,-4.297665352653549
2133133105.4414415,-4.36111460121844
2134134106.2342343,-4.424563849783329
2135135107.0270271,-4.488013098348217
2136136107.81982,-4.549821037129692
2137137108.6126127,-4.6105806363088515
2138138109.4054055,-4.671340235488012
2139139110.1981983,-4.732099834667171
2140140110.990991,-4.792859433846328
2141141111.783784,-4.853701136154267
2142142112.5765765,-4.914559615741601
2143143113.3693693,-4.9754180953289575
2144144114.162162,-5.036276574916311
2145145114.9549549,-5.09697720282448
2146146115.7477477,-5.154705149475059
2147147116.5405405,-5.212433096125637
2148148117.3333335,-5.270161042776222
2149149118.1261263,-5.3278889894268
2150150118.918919,-5.384747177559023
2151151119.711712,-5.439259976053999
2152152120.5045047,-5.493772774548977
2153153121.2972975,-5.548285573043948
2154154122.0900903,-5.602798371538928
2155155122.882883,-5.653404838364872
2156156123.675676,-5.6999555189718185
2157157124.4684687,-5.746506199578759
2158158125.2612615,-5.7930568801856985
2159159126.0540543,-5.839607560792645
2160160126.846847,-5.884807247854226
2161161127.63964,-5.929457022473214
2162162128.4324327,-5.974106797092199
2163163129.2252254,-6.018756571711186
2164164130.018018,-6.063406346330149
2165165130.810811,-6.096799533161599
2166166131.6036034,-6.129355931339774
2167167132.3963966,-6.161912329517982
2168168133.189189,-6.194468727696151
2169169133.981982,-6.226258253155028
2170170134.7747746,-6.253732716751726
2171171135.5675673,-6.281207180348437
2172172136.36036,-6.30868164394515
2173173137.153153,-6.33615610754186
2174174137.9459457,-6.360498094222356
2175175138.7387385,-6.379529165178831
2176176139.5315313,-6.398560236135303
2177177140.324324,-6.417591307091778
2178178141.117117,-6.436622378048239
2179179141.9099097,-6.452253112719738
2180180142.7027025,-6.465531559961224
2181181143.4954953,-6.4788100072027
2182182144.288288,-6.492088454444185
2183183145.081081,-6.505366901685664
2184184145.8738737,-6.5114016202189315
2185185146.6666665,-6.515750298449424
2186186147.4594593,-6.520098976679914
2187187148.252252,-6.5244476549104045
2188188149.045045,-6.52872037403262
2189189149.8378377,-6.530641041707936
2190190150.6306305,-6.532561709383255
2191191151.4234233,-6.534482377058568
2192192152.216216,-6.536403044733885
2193193153.009009,-6.537140698468912
2194194153.8018017,-6.5343552916555545
2195195154.5945945,-6.531569884842195
2196196155.3873873,-6.528784478028838
2197197156.18018,-6.5259990712154865
2198198156.972973,-6.52271005430035
2199199157.7657657,-6.518856490854267
2200200158.5585585,-6.51500292740818
2201201159.3513513,-6.511149363962093
2202202160.144144,-6.507295800516007
2203203160.936937,-6.501429092902444
2204204161.7297297,-6.494664559417493
2205205162.5225224,-6.487900025932542
2206206163.3153152,-6.4811354924475895
2207207164.108108,-6.47437095896263
2208208164.900901,-6.467505418498642
2209209165.6936936,-6.460630091326951
2210210166.4864864,-6.453754764155262
2211211167.279279,-6.446879436983575
2212212168.072072,-6.440308239875712
2213213168.864865,-6.43574107299287
2214214169.6576576,-6.431173906110031
2215215170.4504504,-6.426606739227188
2216216171.243243,-6.422039572344345
2217217172.036036,-6.416032832816611
2218218172.828829,-6.407374328197184
2219219173.6216216,-6.398715823577756
2220220174.4144144,-6.390057318958328
2221221175.207207,-6.381398814338906
2222222176.0,-6.376991035267429
2223223176.792793,-6.375764461995344
2224224177.5855856,-6.3745378887232675
2225225178.3783784,-6.373311315451187
2226226179.171171,-6.372084742179106
2227227179.963964,-6.371837752541903
2228228180.756757,-6.371847949128526
2229229181.5495496,-6.371858145715159
2230230182.3423424,-6.371868342301785
2231231183.135135,-6.371864264218798
2232232183.927928,-6.3706991796736645
2233233184.720721,-6.3695340951285315
2234234185.5135136,-6.368369010583399
2235235186.3063064,-6.367203926038262
2236236187.099099,-6.367501274972455
2237237187.891892,-6.372633229671909
2238238188.6846848,-6.377765184371352
2239239189.4774776,-6.382897139070806
2240240190.2702703,-6.388029093770256
2241241191.063063,-6.39306054956177
2242242191.855856,-6.397970327261336
2243243192.6486487,-6.4028801049609
2244244193.4414415,-6.407789882660466
2245245194.2342343,-6.41269966036003
2246246195.027027,-6.420290451250143
2247247195.81982,-6.429187263891536
2248248196.6126127,-6.438084076532925
2249249197.4054055,-6.446980889174319
2250250198.1981983,-6.455877701815711
2251251198.990991,-6.468171353741251
2252252199.783784,-6.480874027139358
2253253200.5765767,-6.493576700537472
2254254201.3693695,-6.5062793739355795
2255255202.1621623,-6.519635196875686
2256256202.954955,-6.53813724055357
2257257203.747748,-6.556639284231457
2258258204.5405407,-6.575141327909343
2259259205.3333335,-6.593643371587228
2260260206.1261263,-6.610586228598618
2261261206.918919,-6.624402088456961
2262262207.711712,-6.638217948315308
2263263208.5045047,-6.652033808173651
2264264209.2972975,-6.665849668031992
2265265210.0900903,-6.686367068283576
2266266210.882883,-6.712305488227423
2267267211.675676,-6.738243908171266
2268268212.4684687,-6.7641823281151146
2269269213.2612615,-6.7901207480589605
2270270214.0540543,-6.81527083438792
2271271214.8468466,-6.840189300792885
2272272215.63964,-6.865107767197878
2273273216.432432,-6.890026233602839
2274274217.2252254,-6.914944700007826
2275275218.018018,-6.944726185626668
2276276218.810811,-6.97454191785972
2277277219.6036034,-7.0043576500927385
2278278220.3963966,-7.034173382325787
2279279221.189189,-7.065444227981621
2280280221.981982,-7.102088186760118
2281281222.7747746,-7.1387321455385635
2282282223.567568,-7.175376104317046
2283283224.36036,-7.212020063095497
2284284225.153153,-7.247566201796972
2285285225.9459457,-7.281675940397714
2286286226.7387385,-7.3157856789984494
2287287227.5315313,-7.349895417599192
2288288228.324324,-7.3840051561999305
2289289229.117117,-7.424413640278211
2290290229.9099097,-7.468164895195848
2291291230.7027025,-7.511916150113487
2292292231.4954953,-7.555667405031127
2293293232.288288,-7.5994186599487605
2294294233.081081,-7.644149105110452
2295295233.8738737,-7.689021497783285
2296296234.6666665,-7.733893890456122
2297297235.4594593,-7.778766283128956
2298298236.252252,-7.824588301344048
2299299237.045045,-7.879618696372422
2300300237.8378377,-7.934649091400796
2301301238.6306305,-7.989679486429171
2302302239.4234233,-8.04470988145755
2303303240.216216,-8.098583833993699
2304304241.009009,-8.149926371919523
2305305241.8018017,-8.201268909845348
2306306242.5945945,-8.25261144777118
2307307243.3873873,-8.303953985697001
2308308244.18018,-8.362145860051177
2309309244.972973,-8.426322637339636
2310310245.7657657,-8.490499414628095
2311311246.5585585,-8.554676191916561
2312312247.3513513,-8.618852969205024
2313313248.144144,-8.680079172341232
2314314248.936937,-8.740341540463836
2315315249.7297297,-8.800603908586442
2316316250.5225224,-8.860866276709054
2317317251.3153152,-8.921128644831656
2318318252.108108,-8.992284223392856
2319319252.900901,-9.063732098983955
2320320253.6936936,-9.135179974575065
2321321254.4864864,-9.206627850166168
2322322255.279279,-9.278060781829026
2323323256.072072,-9.34943161253766
2324324256.864865,-9.420802443246302
2325325257.6576576,-9.492173273954942
2326326258.4504504,-9.563544104663585
2327327259.243243,-9.635695006230328
2328328260.036036,-9.708949794735812
2329329260.828829,-9.782204583241306
2330330261.6216216,-9.855459371746804
2331331262.4144144,-9.9287141602523
2332332263.207207,-9.997136659364987
2333333264.0,-10.062771407081016
2334334264.792793,-10.128406154797057
2335335265.5855856,-10.194040902513086
2336336266.3783784,-10.259675650229122
2337337267.171171,-10.32263717014059
2338338267.963964,-10.385142594312898
2339339268.756757,-10.447648018485202
2340340269.5495496,-10.510153442657506
2341341270.3423424,-10.570784909895735
2342342271.135135,-10.608084685603266
2343343271.927928,-10.645384461310789
2344344272.720721,-10.68268423701831
2345345273.5135136,-10.719984012725838
2346346274.3063064,-10.753336710020777
2347347275.099099,-10.777231220669556
2348348275.891892,-10.801125731318333
2349349276.6846848,-10.825020241967112
2350350277.4774776,-10.848914752615887
2351351278.2702703,-10.845488652906859
2352352279.063063,-10.816285811379586
2353353279.855856,-10.787082969852307
2354354280.6486487,-10.757880128325027
2355355281.4414415,-10.728677286797756
2356356282.2342343,-10.678149582236689
2357357283.027027,-10.619918858513618
2358358283.81982,-10.561688134790558
2359359284.6126127,-10.503457411067487
2360360285.4054055,-10.445226687344425
2361361286.1981983,-10.351478076975582
2362362286.990991,-10.256045310840584
2363363287.783784,-10.160612544705588
2364364288.5765767,-10.065179778570581
2365365289.3693695,-9.964550864621906
2366366290.1621623,-9.839396132992665
2367367290.954955,-9.714241401363418
2368368291.747748,-9.589086669734181
2369369292.5405407,-9.46393193810494
2370370293.3333335,-9.331941550969491
2371371294.1261263,-9.18947789481987
2372372294.918919,-9.047014238670254
2373373295.711712,-8.904550582520638
2374374296.5045047,-8.76208692637102
2375375297.2972975,-8.6145273452017
2376376298.0900903,-8.463777855252847
2377377298.882883,-8.313028365303992
2378378299.675676,-8.162278875355135
2379379300.4684687,-8.011529385406277
2380380301.2612615,-7.864520884783652
2381381302.0540543,-7.718251019338707
2382382302.8468466,-7.571981153893833
2383383303.63964,-7.425711288448814
2384384304.432432,-7.279660207479244
2385385305.2252254,-7.137353258163658
2386386306.018018,-6.995046308848195
2387387306.810811,-6.852739359532602
2388388307.6036034,-6.710432410217144
2389389308.3963966,-6.573316128364684
2390390309.189189,-6.449863515275589
2391391309.981982,-6.326410902186377
2392392310.7747746,-6.20295828909728
2393393311.567568,-6.079505676008073
2394394312.36036,-5.958333662513158
2395395313.153153,-5.839484607445847
2396396313.9459457,-5.720635552378541
2397397314.7387385,-5.601786497311227
2398398315.5315313,-5.482937442243913
2399399316.324324,-5.3767334760102745
2400400317.117117,-5.275557623803617
2401401317.9099097,-5.1743817715969485
2402402318.7027025,-5.073205919390288
2403403319.4954953,-4.972030067183622
2404404320.288288,-4.88108339195827
2405405321.081081,-4.790840928366173
2406406321.8738737,-4.700598464774079
2407407322.6666665,-4.610356001181979
2408408323.4594593,-4.5223135797901195
2409409324.252252,-4.4462023565243465
2410410325.045045,-4.37009113325857
2411411325.8378377,-4.293979909992797
2412412326.6306305,-4.217868686727025
2413413327.4234233,-4.142968650837176
2414414328.216216,-4.0700805383455245
2415415329.009009,-3.9971924258538736
2416416329.8018017,-3.9243043133622244
2417417330.5945945,-3.851416200870575
2418418331.3873873,-3.788450429300166
2419419332.18018,-3.7322139537961756
2420420332.972973,-3.6759774782921815
2421421333.7657657,-3.619741002788192
2422422334.5585585,-3.5635045272841985
2423423335.3513513,-3.508458938587589
2424424336.144144,-3.4536819305872752
2425425336.936937,-3.398904922586961
2426426337.7297297,-3.344127914586647
2427427338.5225224,-3.2896184766157757
2428428339.3153152,-3.2422597111664357
2429429340.108108,-3.1949009457170954
2430430340.900901,-3.1475421802677546
2431431341.6936936,-3.100183414818415
2432432342.4864864,-3.0533403893810505
2433433343.279279,-3.007994936593408
2434434344.072072,-2.9626494838057607
2435435344.864865,-2.9173040310181158
2436436345.6576576,-2.871958578230469
2437437346.4504504,-2.830376779492651
2438438347.243243,-2.7929338367926215
2439439348.036036,-2.7554908940925933
2440440348.828829,-2.7180479513925633
2441441349.6216216,-2.680605008692535
2442442350.4144144,-2.6440589277428153
2443443351.207207,-2.6079039202307284
2444444352.0,-2.5717489127186415
2445445352.792793,-2.5355939052065537
2446446353.5855856,-2.4994388976944677
2447447354.3783784,-2.465891742680276
2448448355.171171,-2.4325823316488235
2449449355.963964,-2.3992729206173693
2450450356.756757,-2.3659635095859173
2451451357.5495496,-2.3334305446665327
2452452358.3423424,-2.305807398019155
2453453359.135135,-2.2781842513717776
2454454359.927928,-2.2505611047244005
2455455360.720721,-2.2229379580770217
2456456361.5135136,-2.1949366832407433
2457457362.3063064,-2.166253294808801
2458458363.099099,-2.1375699063768585
2459459363.891892,-2.1088865179449146
2460460364.6846848,-2.080203129512973
2461461365.4774776,-2.0538774259097847
2462462366.2702703,-2.0292819951547583
2463463367.063063,-2.004686564399731
2464464367.855856,-1.9800911336447027
2465465368.6486487,-1.9554957028896744
2466466369.4414415,-1.9328238475383082
2467467370.2342343,-1.9106424372783142
2468468371.027027,-1.8884610270183178
2469469371.81982,-1.866279616758322
2470470372.6126127,-1.8440849033826543
2471471373.4054055,-1.8211177417034714
2472472374.1981983,-1.7981505800242878
2473473374.990991,-1.7751834183451025
2474474375.783784,-1.7522162566659192
2475475376.5765767,-1.7303090244739885
2476476377.3693695,-1.7118136460508022
2477477378.1621623,-1.6933182676276182
2478478378.954955,-1.6748228892044337
2479479379.747748,-1.6563275107812472
2480480380.5405407,-1.6391470268230373
2481481381.3333335,-1.6235281123783825
2482482382.1261263,-1.607909197933728
2483483382.918919,-1.5922902834890738
2484484383.711712,-1.5766713690444192
2485485384.5045047,-1.5617662479270993
2486486385.2972975,-1.547201342433732
2487487386.0900903,-1.5326364369403638
2488488386.882883,-1.5180715314469961
2489489387.675676,-1.5035066259536287
2490490388.4684687,-1.4893798989177145
2491491389.2612615,-1.4753033161761508
2492492390.0540543,-1.4612267334345883
2493493390.8468466,-1.4471501506930309
2494494391.63964,-1.43364497247315
2495495392.432432,-1.424435179968019
2496496393.2252254,-1.4152253874628793
2497497394.018018,-1.406015594957748
2498498394.810811,-1.396805802452609
2499499395.6036034,-1.3868411074339029
2500500396.3963966,-1.375394597230419
2501501397.189189,-1.363948087026945
2502502397.981982,-1.3525015768234605
2503503398.7747746,-1.3410550666199865
2504504399.567568,-1.3308765489835852
2505505400.36036,-1.321704055812957
2506506401.153153,-1.312531562642325
2507507401.9459457,-1.3033590694716928
2508508402.7387385,-1.29418657630106
2509509403.5315313,-1.2880572283350813
2510510404.324324,-1.2827977619136417
2511511405.117117,-1.2775382954922017
2512512405.9099097,-1.2722788290707616
2513513406.7027025,-1.267019362649322
2514514407.4954953,-1.2591123619936513
2515515408.288288,-1.2511995018007585
2516516409.081081,-1.2432866416078663
2517517409.8738737,-1.2353737814149734
2518518410.6666665,-1.2285886635778467
2519519411.4594593,-1.2258516074062653
2520520412.252252,-1.2231145512346828
2521521413.045045,-1.2203774950631003
2522522413.8378377,-1.2176404388915185
2523523414.6306305,-1.2138146422055454
2524524415.4234233,-1.2085917810107691
2525525416.216216,-1.2033689198159945
2526526417.009009,-1.1981460586212183
