Freq (Hz),Real Part,Imaginary Part
2000000000.0,0.779466,0.408683
2004784688.0,0.783379,0.395569
2009569376.0,0.793871,0.368512
2014354064.0,0.79649,0.341242
2019138752.0,0.799962,0.323448
2023923440.0,0.799278,0.31169
2028708128.0,0.801703,0.289339
2033492816.0,0.809513,0.261757
2038277504.0,0.811519,0.227016
2043062192.0,0.808967,0.217138
2047846880.0,0.807926,0.200176
2052631568.0,0.805599,0.177974
2057416256.0,0.800538,0.154083
2062200944.0,0.795254,0.133709
2066985632.0,0.792391,0.074218
2071770320.0,0.785633,0.089066
2076555008.0,0.774569,0.072155
2081339696.0,0.767035,0.040439
2086124384.0,0.755665,0.024653
2090909072.0,0.740524,0.002039
2095693760.0,0.725708,-0.016243
2100478448.0,0.708891,-0.035307
2105263136.0,0.693001,-0.049532
2110047824.0,0.67427,-0.065734
2114832512.0,0.651691,-0.079661
2119617200.0,0.626674,-0.113824
2124401888.0,0.618727,-0.102722
2129186576.0,0.588769,-0.108358
2133971264.0,0.560292,-0.119274
2138755952.0,0.53915,-0.11367
2143540640.0,0.514242,-0.109427
2148325328.0,0.491371,-0.104664
2153110016.0,0.470202,-0.103726
2157894704.0,0.452586,-0.093731
2162679392.0,0.438151,-0.079057
2167464080.0,0.426091,-0.060121
2172248768.0,0.415695,-0.058288
2177033456.0,0.413396,-0.032778
2181818144.0,0.415697,-0.023272
2186602832.0,0.418023,-0.008045
2191387520.0,0.422865,-0.000786
2196172208.0,0.426109,0.008821
2200956896.0,0.435081,0.008128
2205741584.0,0.439259,0.017522
2210526272.0,0.446131,0.016136
2215310960.0,0.452273,0.019546
2220095648.0,0.456131,0.002108
2224880336.0,0.468581,0.002374
2229665024.0,0.467007,-0.005584
2234449712.0,0.464286,-0.000266
2239234400.0,0.469939,-0.014852
2244019088.0,0.459916,-0.024473
2248803776.0,0.467121,-0.028274
2253588464.0,0.463904,-0.03807
2258373152.0,0.463442,-0.052487
2263157840.0,0.463571,-0.047854
2267942528.0,0.454529,-0.059833
2272727216.0,0.447961,-0.063481
2277511904.0,0.445158,-0.063326
2282296592.0,0.434282,-0.07557
2287081280.0,0.424171,-0.078038
2291865968.0,0.418204,-0.081083
2296650656.0,0.416186,-0.083262
2301435344.0,0.400839,-0.080226
2306220032.0,0.388392,-0.084578
2311004720.0,0.378576,-0.085446
2315789408.0,0.372417,-0.08725
2320574096.0,0.354291,-0.086544
2325358784.0,0.347318,-0.083727
2330143472.0,0.333284,-0.075893
2334928160.0,0.327327,-0.07348
2339712848.0,0.31227,-0.056609
2344497536.0,0.303223,-0.04146
2349282224.0,0.293282,-0.036963
2354066912.0,0.284168,-0.023355
2358851600.0,0.280488,0.003716
2363636288.0,0.274835,0.016748
2368420976.0,0.277336,0.035782
2373205664.0,0.280948,0.066095
2377990352.0,0.28849,0.093796
2382775040.0,0.3018,0.115226
2387559728.0,0.324007,0.12389
2392344416.0,0.339337,0.147323
2397129104.0,0.367432,0.161794
2401913792.0,0.390356,0.173301
2406698480.0,0.413675,0.160604
2411483168.0,0.442172,0.165738
2416267856.0,0.465714,0.175397
2421052544.0,0.488989,0.179226
2425837232.0,0.516442,0.158132
2430621920.0,0.544037,0.148701
2435406608.0,0.566114,0.161934
2440191296.0,0.591561,0.135607
2444975984.0,0.623313,0.10497
2449760672.0,0.639271,0.108276
2454545360.0,0.659627,0.052716
2459330048.0,0.676555,0.06521
2464114736.0,0.685147,0.020908
2468899424.0,0.696399,0.01319
2473684112.0,0.698509,-0.021718
2478468800.0,0.712555,-0.028535
2483253488.0,0.708686,-0.06506
2488038176.0,0.711577,-0.088974
2492822864.0,0.709198,-0.101979
2497607552.0,0.712613,-0.131126
2502392240.0,0.717371,-0.109459
2507176928.0,0.714746,-0.146462
2511961616.0,0.707097,-0.168797
2516746304.0,0.702663,-0.189193
2521530992.0,0.701532,-0.206894
2526315680.0,0.701189,-0.224093
2531100368.0,0.682189,-0.26
2535885056.0,0.672738,-0.273175
2540669744.0,0.686812,-0.262571
2545454432.0,0.671805,-0.29318
2550239120.0,0.673926,-0.296206
2555023808.0,0.669927,-0.317235
2559808496.0,0.653413,-0.343759
2564593184.0,0.658325,-0.344499
2569377872.0,0.649858,-0.354452
2574162560.0,0.633965,-0.386231
2578947248.0,0.617285,-0.412869
2583731936.0,0.641551,-0.39799
2588516624.0,0.628085,-0.410729
2593301312.0,0.615841,-0.431283
2598086000.0,0.60339,-0.452369
2602870688.0,0.600713,-0.463357
2607655376.0,0.583183,-0.477403
2612440064.0,0.579795,-0.490927
2617224752.0,0.559271,-0.509601
2622009440.0,0.546263,-0.515273
2626794128.0,0.525167,-0.526445
2631578816.0,0.521795,-0.543608
2636363504.0,0.500167,-0.5638
2641148192.0,0.496779,-0.550925
2645932880.0,0.471956,-0.576824
2650717568.0,0.442259,-0.597279
2655502256.0,0.436728,-0.602634
2660286944.0,0.405753,-0.616503
2665071632.0,0.391618,-0.627087
2669856320.0,0.37775,-0.641421
2674641008.0,0.350339,-0.641157
2679425696.0,0.332389,-0.641573
2684210384.0,0.301398,-0.645019
2688995072.0,0.29132,-0.651213
2693779760.0,0.258062,-0.650518
2698564448.0,0.252095,-0.654626
2703349136.0,0.217306,-0.654612
2708133824.0,0.206743,-0.641061
2712918512.0,0.190856,-0.628791
2717703200.0,0.173306,-0.622229
2722487888.0,0.142691,-0.607467
2727272576.0,0.122755,-0.587537
2732057264.0,0.119186,-0.574819
2736841952.0,0.102958,-0.560011
2741626640.0,0.077578,-0.54642
2746411328.0,0.067535,-0.529597
2751196016.0,0.059085,-0.50781
2755980704.0,0.047994,-0.485634
2760765392.0,0.043801,-0.472135
2765550080.0,0.052103,-0.453938
2770334768.0,0.043578,-0.437438
2775119456.0,0.063353,-0.417648
2779904144.0,0.046832,-0.407683
2784688832.0,0.071785,-0.391425
2789473520.0,0.082345,-0.385005
2794258208.0,0.093712,-0.37471
2799042896.0,0.108094,-0.368051
2803827584.0,0.122676,-0.364705
2808612272.0,0.1287,-0.369755
2813396960.0,0.15057,-0.361045
2818181648.0,0.150872,-0.366289
2822966336.0,0.166302,-0.367721
2827751024.0,0.17562,-0.381132
2832535712.0,0.190398,-0.383684
2837320400.0,0.193454,-0.39679
2842105088.0,0.194309,-0.398816
2846889776.0,0.196659,-0.412907
2851674464.0,0.197623,-0.420764
2856459152.0,0.196028,-0.435545
2861243840.0,0.200041,-0.446112
2866028528.0,0.19977,-0.454815
2870813216.0,0.199299,-0.464222
2875597904.0,0.197806,-0.471073
2880382592.0,0.1865,-0.483949
2885167280.0,0.183893,-0.486481
2889951968.0,0.168206,-0.500249
2894736656.0,0.164057,-0.503767
2899521344.0,0.163628,-0.510861
2904306032.0,0.159706,-0.506727
2909090720.0,0.148214,-0.517812
2913875408.0,0.138235,-0.524424
2918660096.0,0.134684,-0.529291
2923444784.0,0.130331,-0.529991
2928229472.0,0.117897,-0.534298
2933014160.0,0.108453,-0.540273
2937798848.0,0.105272,-0.541495
2942583536.0,0.093448,-0.546817
2947368224.0,0.081281,-0.546133
2952152912.0,0.075426,-0.554579
2956937600.0,0.064426,-0.556997
2961722288.0,0.053679,-0.557293
2966506976.0,0.057027,-0.559738
2971291664.0,0.044701,-0.564024
2976076352.0,0.037843,-0.557452
2980861040.0,0.026027,-0.558276
2985645728.0,0.029969,-0.563701
2990430416.0,0.01171,-0.564865
2995215104.0,-0.00404,-0.5683
2999999792.0,0.000876,-0.56761
