Freq (Hz),Real Part,Imaginary Part
2000000000.0,0.775216,0.384466
2004784688.0,0.773778,0.373051
2009569376.0,0.77941,0.369358
2014354064.0,0.790996,0.322921
2019138752.0,0.788966,0.309256
2023923440.0,0.794631,0.29169
2028708128.0,0.79855,0.266428
2033492816.0,0.799986,0.245085
2038277504.0,0.797009,0.218148
2043062192.0,0.794167,0.199871
2047846880.0,0.791796,0.175592
2052631568.0,0.790621,0.148327
2057416256.0,0.783724,0.134415
2062200944.0,0.777108,0.109759
2066985632.0,0.766423,0.088204
2071770320.0,0.760571,0.06127
2076555008.0,0.741994,0.047271
2081339696.0,0.728859,0.024826
2086124384.0,0.714231,0.007389
2090909072.0,0.705565,-0.000599
2095693760.0,0.683794,-0.030264
2100478448.0,0.660085,-0.048185
2105263136.0,0.637993,-0.053624
2110047824.0,0.616104,-0.075191
2114832512.0,0.592869,-0.073308
2119617200.0,0.574379,-0.078832
2124401888.0,0.54931,-0.087918
2129186576.0,0.525856,-0.080291
2133971264.0,0.504092,-0.079965
2138755952.0,0.483035,-0.06844
2143540640.0,0.463846,-0.053956
2148325328.0,0.449321,-0.044154
2153110016.0,0.439875,-0.035915
2157894704.0,0.433815,-0.017105
2162679392.0,0.430726,-0.002946
2167464080.0,0.426511,0.013314
2172248768.0,0.430757,0.021117
2177033456.0,0.43446,0.030472
2181818144.0,0.445015,0.03431
2186602832.0,0.453023,0.043131
2191387520.0,0.462637,0.035382
2196172208.0,0.46785,0.041214
2200956896.0,0.47414,0.032576
2205741584.0,0.480142,0.032714
2210526272.0,0.482605,0.026334
2215310960.0,0.487711,0.023849
2220095648.0,0.486715,0.00597
2224880336.0,0.489022,-0.005769
2229665024.0,0.491423,0.002317
2234449712.0,0.484167,-0.009591
2239234400.0,0.486432,-0.024398
2244019088.0,0.472035,-0.041925
2248803776.0,0.475834,-0.037882
2253588464.0,0.470225,-0.047671
2258373152.0,0.467558,-0.061073
2263157840.0,0.455859,-0.056185
2267942528.0,0.452999,-0.065509
2272727216.0,0.442717,-0.06507
2277511904.0,0.436987,-0.072158
2282296592.0,0.426519,-0.077282
2287081280.0,0.414098,-0.079707
2291865968.0,0.406704,-0.079695
2296650656.0,0.401947,-0.085691
2301435344.0,0.384406,-0.078595
2306220032.0,0.370589,-0.084924
2311004720.0,0.3629,-0.078586
2315789408.0,0.352374,-0.078049
2320574096.0,0.337913,-0.065665
2325358784.0,0.327803,-0.06925
2330143472.0,0.318909,-0.056396
2334928160.0,0.307362,-0.051717
2339712848.0,0.290031,-0.036684
2344497536.0,0.283842,-0.015163
2349282224.0,0.273938,-0.005197
2354066912.0,0.269419,0.00893
2358851600.0,0.264273,0.037491
2363636288.0,0.259498,0.058984
2368420976.0,0.264608,0.081157
2373205664.0,0.27175,0.113905
2377990352.0,0.280511,0.147795
2382775040.0,0.299221,0.171259
2387559728.0,0.325299,0.190684
2392344416.0,0.354691,0.20483
2397129104.0,0.377285,0.231512
2401913792.0,0.422569,0.238463
2406698480.0,0.462153,0.226175
2411483168.0,0.501241,0.217055
2416267856.0,0.53175,0.217616
2421052544.0,0.56441,0.208509
2425837232.0,0.59252,0.164287
2430621920.0,0.61867,0.149221
2435406608.0,0.633783,0.142763
2440191296.0,0.649601,0.105773
2444975984.0,0.667012,0.078263
2449760672.0,0.673888,0.065538
2454545360.0,0.682241,0.023434
2459330048.0,0.684708,0.020881
2464114736.0,0.687306,-0.00638
2468899424.0,0.682981,-0.026891
2473684112.0,0.685237,-0.041485
2478468800.0,0.688953,-0.057605
2483253488.0,0.685857,-0.078268
2488038176.0,0.687357,-0.083761
2492822864.0,0.694004,-0.100975
2497607552.0,0.69062,-0.117113
2502392240.0,0.690353,-0.125971
2507176928.0,0.702548,-0.096418
2511961616.0,0.6908,-0.155305
2516746304.0,0.681211,-0.176294
2521530992.0,0.680242,-0.196946
2526315680.0,0.683408,-0.194742
2531100368.0,0.680425,-0.210132
2535885056.0,0.671041,-0.236579
2540669744.0,0.68397,-0.222435
2545454432.0,0.669117,-0.246511
2550239120.0,0.666838,-0.266495
2555023808.0,0.663163,-0.282115
2559808496.0,0.657164,-0.289178
2564593184.0,0.662829,-0.297635
2569377872.0,0.657037,-0.318585
2574162560.0,0.652082,-0.333943
2578947248.0,0.65961,-0.34035
2583731936.0,0.660289,-0.342524
2588516624.0,0.653923,-0.367173
2593301312.0,0.651519,-0.365692
2598086000.0,0.640149,-0.383282
2602870688.0,0.629035,-0.413424
2607655376.0,0.622036,-0.434848
2612440064.0,0.617914,-0.436339
2617224752.0,0.613184,-0.441222
2622009440.0,0.606499,-0.469001
2626794128.0,0.608668,-0.470104
2631578816.0,0.598035,-0.494111
2636363504.0,0.58407,-0.513734
2641148192.0,0.563651,-0.528749
2645932880.0,0.565849,-0.534473
2650717568.0,0.546616,-0.569972
2655502256.0,0.5356,-0.565181
2660286944.0,0.502481,-0.596162
2665071632.0,0.521753,-0.596448
2669856320.0,0.496489,-0.62488
2674641008.0,0.475091,-0.634613
2679425696.0,0.464088,-0.645629
2684210384.0,0.447156,-0.654122
2688995072.0,0.424015,-0.673741
2693779760.0,0.398302,-0.68152
2698564448.0,0.381796,-0.689978
2703349136.0,0.369254,-0.694727
2708133824.0,0.345114,-0.695918
2712918512.0,0.328935,-0.690241
2717703200.0,0.303606,-0.697668
2722487888.0,0.264983,-0.70036
2727272576.0,0.254216,-0.700673
2732057264.0,0.236932,-0.698363
2736841952.0,0.217589,-0.690827
2741626640.0,0.178955,-0.689338
2746411328.0,0.152676,-0.682377
2751196016.0,0.152474,-0.673073
2755980704.0,0.121621,-0.664965
2760765392.0,0.086682,-0.649176
2765550080.0,0.080398,-0.63423
2770334768.0,0.067747,-0.627558
2775119456.0,0.076769,-0.61005
2779904144.0,0.033393,-0.596591
2784688832.0,0.031257,-0.583734
2789473520.0,0.02829,-0.56261
2794258208.0,0.019664,-0.542389
2799042896.0,0.008333,-0.527526
2803827584.0,0.002044,-0.51278
2808612272.0,-1.2e-05,-0.497956
2813396960.0,0.015858,-0.478783
2818181648.0,0.012333,-0.466122
2822966336.0,0.019598,-0.455229
2827751024.0,0.035111,-0.445718
2832535712.0,0.043591,-0.433706
2837320400.0,0.04579,-0.430501
2842105088.0,0.057325,-0.42096
2846889776.0,0.069891,-0.427034
2851674464.0,0.077921,-0.423274
2856459152.0,0.078744,-0.423464
2861243840.0,0.08757,-0.428038
2866028528.0,0.09195,-0.426852
2870813216.0,0.10303,-0.436457
2875597904.0,0.109292,-0.442425
2880382592.0,0.104871,-0.447343
2885167280.0,0.116483,-0.454738
2889951968.0,0.114204,-0.462817
2894736656.0,0.114539,-0.467223
2899521344.0,0.118805,-0.47135
2904306032.0,0.112067,-0.475028
2909090720.0,0.108914,-0.486172
2913875408.0,0.107758,-0.491095
2918660096.0,0.10354,-0.496829
2923444784.0,0.09189,-0.499692
2928229472.0,0.088547,-0.504177
2933014160.0,0.071584,-0.511121
2937798848.0,0.07659,-0.514367
2942583536.0,0.07092,-0.518883
2947368224.0,0.055921,-0.526269
2952152912.0,0.059324,-0.527094
2956937600.0,0.044905,-0.529261
2961722288.0,0.036329,-0.536192
2966506976.0,0.038378,-0.539963
2971291664.0,0.042113,-0.538407
2976076352.0,0.032599,-0.53889
2980861040.0,0.020097,-0.546281
2985645728.0,0.020391,-0.549831
2990430416.0,0.006849,-0.544755
2995215104.0,-0.008754,-0.55408
2999999792.0,-0.008709,-0.553952
