Freq (Hz),Real Part,Imaginary Part
2000000000.0,0.771021,0.374104
2004784688.0,0.773079,0.359953
2009569376.0,0.783396,0.329864
2014354064.0,0.787101,0.317296
2019138752.0,0.788117,0.299017
2023923440.0,0.789945,0.279713
2028708128.0,0.787208,0.259284
2033492816.0,0.786658,0.228513
2038277504.0,0.788119,0.197385
2043062192.0,0.781669,0.189962
2047846880.0,0.779269,0.166881
2052631568.0,0.773413,0.141664
2057416256.0,0.765937,0.114399
2062200944.0,0.759126,0.097916
2066985632.0,0.746279,0.074095
2071770320.0,0.737253,0.049163
2076555008.0,0.721118,0.038912
2081339696.0,0.705728,0.015658
2086124384.0,0.687589,-0.000347
2090909072.0,0.670843,-0.015916
2095693760.0,0.647701,-0.035905
2100478448.0,0.623573,-0.048951
2105263136.0,0.599094,-0.052144
2110047824.0,0.578103,-0.064894
2114832512.0,0.555142,-0.06538
2119617200.0,0.529879,-0.069692
2124401888.0,0.511207,-0.062359
2129186576.0,0.489212,-0.048185
2133971264.0,0.470045,-0.04991
2138755952.0,0.454053,-0.032741
2143540640.0,0.442441,-0.016472
2148325328.0,0.432237,-0.00776
2153110016.0,0.428522,0.00387
2157894704.0,0.429513,0.018426
2162679392.0,0.429651,0.032643
2167464080.0,0.433032,0.038311
2172248768.0,0.439484,0.045693
2177033456.0,0.447681,0.051438
2181818144.0,0.45822,0.053071
2186602832.0,0.465611,0.050202
2191387520.0,0.472217,0.04851
2196172208.0,0.475308,0.046636
2200956896.0,0.477749,0.029781
2205741584.0,0.483526,0.029255
2210526272.0,0.484613,0.026821
2215310960.0,0.481984,0.016015
2220095648.0,0.482871,0.003363
2224880336.0,0.475529,-0.009544
2229665024.0,0.473093,-0.00894
2234449712.0,0.468631,-0.011685
2239234400.0,0.465269,-0.025474
2244019088.0,0.451395,-0.040289
2248803776.0,0.450938,-0.037968
2253588464.0,0.441569,-0.047382
2258373152.0,0.438738,-0.052704
2263157840.0,0.423925,-0.059012
2267942528.0,0.416616,-0.057024
2272727216.0,0.401956,-0.066063
2277511904.0,0.397367,-0.050709
2282296592.0,0.383148,-0.05593
2287081280.0,0.368076,-0.058879
2291865968.0,0.355773,-0.059961
2296650656.0,0.339824,-0.063505
2301435344.0,0.333788,-0.046601
2306220032.0,0.319759,-0.03315
2311004720.0,0.31061,-0.028213
2315789408.0,0.299386,-0.013982
2320574096.0,0.289118,0.00209
2325358784.0,0.278236,0.012949
2330143472.0,0.271715,0.032188
2334928160.0,0.266285,0.053179
2339712848.0,0.257766,0.080849
2344497536.0,0.256694,0.11551
2349282224.0,0.27003,0.130065
2354066912.0,0.279144,0.162456
2358851600.0,0.294655,0.18962
2363636288.0,0.315056,0.2093
2368420976.0,0.343843,0.234701
2373205664.0,0.373834,0.258833
2377990352.0,0.402198,0.282658
2382775040.0,0.439734,0.288397
2387559728.0,0.489188,0.279691
2392344416.0,0.519803,0.279591
2397129104.0,0.559722,0.277617
2401913792.0,0.606269,0.251186
2406698480.0,0.63656,0.209857
2411483168.0,0.656744,0.185878
2416267856.0,0.677653,0.174338
2421052544.0,0.695449,0.168493
2425837232.0,0.710649,0.110097
2430621920.0,0.727629,0.084764
2435406608.0,0.733399,0.089463
2440191296.0,0.741996,0.058434
2444975984.0,0.751054,0.007546
2449760672.0,0.750924,0.006288
2454545360.0,0.758128,-0.032793
2459330048.0,0.757401,-0.035441
2464114736.0,0.767382,-0.055352
2468899424.0,0.755799,-0.08796
2473684112.0,0.760112,-0.106892
2478468800.0,0.75731,-0.125455
2483253488.0,0.747788,-0.140728
2488038176.0,0.746898,-0.164318
2492822864.0,0.746868,-0.176273
2497607552.0,0.733638,-0.198536
2502392240.0,0.73707,-0.207787
2507176928.0,0.728676,-0.234846
2511961616.0,0.723388,-0.24402
2516746304.0,0.717444,-0.258763
2521530992.0,0.71012,-0.272578
2526315680.0,0.715433,-0.283278
2531100368.0,0.702204,-0.30553
2535885056.0,0.696179,-0.320527
2540669744.0,0.699995,-0.317692
2545454432.0,0.68478,-0.341668
2550239120.0,0.683587,-0.348058
2555023808.0,0.672692,-0.369024
2559808496.0,0.648868,-0.394497
2564593184.0,0.661498,-0.396827
2569377872.0,0.648029,-0.416535
2574162560.0,0.63765,-0.429183
2578947248.0,0.636404,-0.443849
2583731936.0,0.630142,-0.457051
2588516624.0,0.621834,-0.462935
2593301312.0,0.606117,-0.477136
2598086000.0,0.600486,-0.512689
2602870688.0,0.585551,-0.515092
2607655376.0,0.571258,-0.5261
2612440064.0,0.55665,-0.535731
2617224752.0,0.548446,-0.548608
2622009440.0,0.520503,-0.559669
2626794128.0,0.509065,-0.566984
2631578816.0,0.477988,-0.583638
2636363504.0,0.455914,-0.609094
2641148192.0,0.455208,-0.595746
2645932880.0,0.439844,-0.609509
2650717568.0,0.402874,-0.6226
2655502256.0,0.387044,-0.622591
2660286944.0,0.368422,-0.629968
2665071632.0,0.351687,-0.647258
2669856320.0,0.335791,-0.645669
2674641008.0,0.303687,-0.653142
2679425696.0,0.277351,-0.658565
2684210384.0,0.259955,-0.649336
2688995072.0,0.246832,-0.648846
2693779760.0,0.232287,-0.636191
2698564448.0,0.203146,-0.63839
2703349136.0,0.191201,-0.631258
2708133824.0,0.182866,-0.614032
2712918512.0,0.15796,-0.601938
2717703200.0,0.15093,-0.587547
2722487888.0,0.117861,-0.572294
2727272576.0,0.120824,-0.55637
2732057264.0,0.108433,-0.541322
2736841952.0,0.086838,-0.522904
2741626640.0,0.081286,-0.511176
2746411328.0,0.069921,-0.498795
2751196016.0,0.070876,-0.471061
2755980704.0,0.065152,-0.453975
2760765392.0,0.067887,-0.434506
2765550080.0,0.079241,-0.426428
2770334768.0,0.076037,-0.41706
2775119456.0,0.101293,-0.404925
2779904144.0,0.096353,-0.395618
2784688832.0,0.115422,-0.389733
2789473520.0,0.118323,-0.385683
2794258208.0,0.129919,-0.382813
2799042896.0,0.141851,-0.385124
2803827584.0,0.152482,-0.382787
2808612272.0,0.164038,-0.395281
2813396960.0,0.176929,-0.395379
2818181648.0,0.185284,-0.397425
2822966336.0,0.189893,-0.404785
2827751024.0,0.197721,-0.412911
2832535712.0,0.203532,-0.418623
2837320400.0,0.197799,-0.430237
2842105088.0,0.199042,-0.436009
2846889776.0,0.194417,-0.443254
2851674464.0,0.209585,-0.459271
2856459152.0,0.193991,-0.469163
2861243840.0,0.191263,-0.477546
2866028528.0,0.183065,-0.481028
2870813216.0,0.178266,-0.496857
2875597904.0,0.182862,-0.499952
2880382592.0,0.174513,-0.502533
2885167280.0,0.16088,-0.515175
2889951968.0,0.139309,-0.524805
2894736656.0,0.142423,-0.524809
2899521344.0,0.150552,-0.530373
2904306032.0,0.142131,-0.533615
2909090720.0,0.124452,-0.541629
2913875408.0,0.124242,-0.545198
2918660096.0,0.123761,-0.545682
2923444784.0,0.105112,-0.548719
2928229472.0,0.105154,-0.553009
2933014160.0,0.095762,-0.553914
2937798848.0,0.095215,-0.555537
2942583536.0,0.0809,-0.559523
2947368224.0,0.069142,-0.55944
2952152912.0,0.062748,-0.564608
2956937600.0,0.060082,-0.56861
2961722288.0,0.047712,-0.56985
2966506976.0,0.046506,-0.576026
2971291664.0,0.041121,-0.577929
2976076352.0,0.034971,-0.575745
2980861040.0,0.01712,-0.576913
2985645728.0,0.011991,-0.578187
2990430416.0,0.002923,-0.581395
2995215104.0,-0.009207,-0.58178
2999999792.0,-0.01184,-0.584112
