Freq (Hz),Real Part,Imaginary Part
2200000000.0,0.590379,0.455179
2204000000.0,0.62526,0.414157
2208000000.0,0.644317,0.392561
2212000000.0,0.662947,0.373277
2216000000.0,0.68322,0.334881
2220000000.0,0.705204,0.288356
2224000000.0,0.722782,0.250433
2228000000.0,0.721286,0.211907
2232000000.0,0.734923,0.17613
2236000000.0,0.739506,0.14883
2240000000.0,0.754561,0.096466
2244000000.0,0.76595,0.052865
2248000000.0,0.767421,0.004474
2252000000.0,0.76654,-0.028528
2256000000.0,0.764212,-0.079148
2260000000.0,0.759236,-0.132562
2264000000.0,0.756329,-0.165963
2268000000.0,0.750089,-0.214381
2272000000.0,0.73135,-0.254858
2276000000.0,0.720567,-0.302014
2280000000.0,0.698553,-0.341659
2284000000.0,0.673342,-0.395328
2288000000.0,0.648235,-0.437488
2292000000.0,0.622744,-0.476836
2296000000.0,0.593012,-0.511353
2300000000.0,0.550543,-0.548069
2304000000.0,0.523152,-0.561141
2308000000.0,0.496227,-0.586196
2312000000.0,0.476429,-0.593484
2316000000.0,0.447179,-0.594505
2320000000.0,0.417078,-0.59567
2324000000.0,0.393617,-0.592123
2328000000.0,0.360041,-0.598746
2332000000.0,0.324682,-0.591172
2336000000.0,0.300799,-0.584567
2340000000.0,0.269783,-0.580473
2344000000.0,0.247287,-0.566704
2348000000.0,0.219534,-0.556255
2352000000.0,0.195084,-0.544599
2356000000.0,0.169636,-0.526974
2360000000.0,0.148945,-0.507434
2364000000.0,0.136657,-0.489554
2368000000.0,0.113346,-0.469913
2372000000.0,0.102457,-0.454633
2376000000.0,0.089932,-0.434998
2380000000.0,0.080728,-0.416236
2384000000.0,0.076406,-0.389424
2388000000.0,0.056349,-0.364268
2392000000.0,0.061428,-0.349219
2396000000.0,0.055229,-0.328982
2400000000.0,0.051061,-0.311113
2404000000.0,0.050345,-0.286718
2408000000.0,0.054361,-0.27113
2412000000.0,0.057568,-0.251017
2416000000.0,0.064135,-0.238273
2420000000.0,0.067518,-0.223707
2424000000.0,0.073132,-0.212461
2428000000.0,0.075559,-0.199281
2432000000.0,0.08549,-0.189737
2436000000.0,0.096588,-0.181682
2440000000.0,0.099613,-0.175093
2444000000.0,0.109839,-0.171022
2448000000.0,0.113759,-0.169352
2452000000.0,0.121795,-0.162186
2456000000.0,0.123155,-0.162977
2460000000.0,0.125291,-0.164794
2464000000.0,0.125896,-0.16438
2468000000.0,0.125573,-0.162192
2472000000.0,0.125317,-0.162751
2476000000.0,0.124873,-0.160771
2480000000.0,0.120618,-0.153571
2484000000.0,0.118407,-0.14922
2488000000.0,0.114935,-0.144336
2492000000.0,0.112081,-0.139085
2496000000.0,0.108737,-0.130394
2500000000.0,0.107802,-0.1236
2504000000.0,0.107237,-0.109485
2508000000.0,0.107715,-0.096936
2512000000.0,0.107534,-0.08818
2516000000.0,0.108637,-0.075087
2520000000.0,0.112472,-0.066013
2524000000.0,0.118739,-0.054812
2528000000.0,0.122258,-0.041141
2532000000.0,0.130132,-0.0259
2536000000.0,0.136862,-0.015936
2540000000.0,0.147165,-0.005758
2544000000.0,0.156681,0.005651
2548000000.0,0.168277,0.012423
2552000000.0,0.178578,0.021996
2556000000.0,0.189593,0.031657
2560000000.0,0.203852,0.04292
2564000000.0,0.218261,0.049899
2568000000.0,0.234909,0.057167
2572000000.0,0.25206,0.066198
2576000000.0,0.268961,0.066035
2580000000.0,0.285112,0.071013
2584000000.0,0.309846,0.08238
2588000000.0,0.326625,0.070083
2592000000.0,0.347718,0.07386
2596000000.0,0.366609,0.074206
2600000000.0,0.391144,0.060395
2604000000.0,0.409636,0.060354
2608000000.0,0.437533,0.05053
2612000000.0,0.463138,0.037804
2616000000.0,0.483565,0.026776
2620000000.0,0.505595,0.010313
2624000000.0,0.522787,-0.009636
2628000000.0,0.533186,-0.028986
2632000000.0,0.559494,-0.047028
2636000000.0,0.578075,-0.074915
2640000000.0,0.598023,-0.091926
2644000000.0,0.600721,-0.133883
2648000000.0,0.61284,-0.153532
2652000000.0,0.614439,-0.18561
2656000000.0,0.616679,-0.209824
2660000000.0,0.624341,-0.227146
2664000000.0,0.614185,-0.274858
2668000000.0,0.619605,-0.296754
2672000000.0,0.602541,-0.333759
2676000000.0,0.592158,-0.363239
2680000000.0,0.584662,-0.386544
2684000000.0,0.575253,-0.411829
2688000000.0,0.553218,-0.440047
2692000000.0,0.534235,-0.467628
2696000000.0,0.530609,-0.471402
2700000000.0,0.496841,-0.494371
2704000000.0,0.465949,-0.524157
2708000000.0,0.434033,-0.533862
2712000000.0,0.416256,-0.545693
2716000000.0,0.387815,-0.565895
2720000000.0,0.352658,-0.563512
2724000000.0,0.341999,-0.564884
2728000000.0,0.310934,-0.565963
2732000000.0,0.28294,-0.571573
2736000000.0,0.249826,-0.565458
2740000000.0,0.240694,-0.559942
2744000000.0,0.210886,-0.553408
2748000000.0,0.194393,-0.541668
2752000000.0,0.172421,-0.523082
2756000000.0,0.151194,-0.51642
2760000000.0,0.137219,-0.497283
2764000000.0,0.105978,-0.479909
2768000000.0,0.125019,-0.463137
2772000000.0,0.107891,-0.449993
2776000000.0,0.106328,-0.426582
2780000000.0,0.099452,-0.408539
2784000000.0,0.095085,-0.388378
2788000000.0,0.100373,-0.371235
2792000000.0,0.105903,-0.356753
2796000000.0,0.112686,-0.346178
2800000000.0,0.118274,-0.335975
2804000000.0,0.121792,-0.326845
2808000000.0,0.13376,-0.32211
2812000000.0,0.144106,-0.314222
2816000000.0,0.147152,-0.311509
2820000000.0,0.147442,-0.31418
2824000000.0,0.161784,-0.311866
2828000000.0,0.181384,-0.310528
2832000000.0,0.182593,-0.317988
2836000000.0,0.196665,-0.312
2840000000.0,0.202851,-0.317575
2844000000.0,0.209671,-0.321877
2848000000.0,0.204857,-0.331988
2852000000.0,0.208959,-0.335219
2856000000.0,0.225517,-0.331731
2860000000.0,0.226249,-0.35004
2864000000.0,0.229526,-0.346462
2868000000.0,0.234185,-0.351226
2872000000.0,0.237134,-0.355289
2876000000.0,0.230792,-0.372835
2880000000.0,0.237825,-0.37704
2884000000.0,0.241364,-0.376432
2888000000.0,0.245444,-0.384979
2892000000.0,0.247506,-0.398136
2896000000.0,0.250091,-0.403114
2900000000.0,0.242244,-0.414907
2904000000.0,0.249803,-0.415977
2908000000.0,0.247339,-0.428333
2912000000.0,0.251003,-0.436431
2916000000.0,0.239183,-0.446659
2920000000.0,0.253048,-0.445008
2924000000.0,0.246966,-0.458425
2928000000.0,0.242803,-0.46675
2932000000.0,0.243927,-0.481306
2936000000.0,0.234596,-0.491173
2940000000.0,0.232748,-0.497627
2944000000.0,0.234435,-0.504623
2948000000.0,0.228786,-0.512171
2952000000.0,0.213987,-0.524432
2956000000.0,0.219329,-0.531568
2960000000.0,0.213746,-0.537512
2964000000.0,0.198535,-0.552449
2968000000.0,0.194849,-0.560385
2972000000.0,0.190011,-0.567422
2976000000.0,0.17524,-0.576065
2980000000.0,0.171032,-0.584047
2984000000.0,0.156392,-0.595868
2988000000.0,0.150882,-0.603202
2992000000.0,0.12276,-0.615569
2996000000.0,0.11964,-0.615318
3000000000.0,0.115322,-0.621124
