Frequency (Hz),Real Part,Imaginary Part
1600000000.0,-0.78969,0.521909
1607000000.0,-0.764542,0.558053
1614000000.0,-0.734912,0.597996
1621000000.0,-0.705321,0.632155
1628000000.0,-0.676275,0.658335
1635000000.0,-0.651035,0.68742
1642000000.0,-0.624534,0.708254
1649000000.0,-0.564154,0.748413
1656000000.0,-0.530703,0.769373
1663000000.0,-0.500834,0.789822
1670000000.0,-0.459871,0.817086
1677000000.0,-0.419857,0.832876
1684000000.0,-0.376748,0.855296
1691000000.0,-0.301052,0.881411
1698000000.0,-0.293645,0.88489
1705000000.0,-0.247908,0.901998
1712000000.0,-0.207922,0.906496
1719000000.0,-0.164893,0.913291
1726000000.0,-0.123886,0.918907
1733000000.0,-0.083349,0.921157
1740000000.0,-0.041265,0.926229
1747000000.0,0.002915,0.921369
1754000000.0,0.041426,0.916498
1761000000.0,0.089093,0.910453
1768000000.0,0.137896,0.900722
1775000000.0,0.17643,0.888563
1782000000.0,0.214725,0.881748
1789000000.0,0.256235,0.868902
1796000000.0,0.294731,0.851708
1803000000.0,0.340365,0.833686
1810000000.0,0.376566,0.816276
1817000000.0,0.413818,0.796032
1824000000.0,0.446945,0.785636
1831000000.0,0.390837,0.81137
1838000000.0,0.516037,0.727152
1845000000.0,0.543518,0.694563
1852000000.0,0.572843,0.662969
1859000000.0,0.602709,0.641635
1866000000.0,0.627516,0.612999
1873000000.0,0.658459,0.573178
1880000000.0,0.686913,0.537253
1887000000.0,0.708893,0.504947
1894000000.0,0.733084,0.466145
1901000000.0,0.753595,0.43104
1908000000.0,0.770555,0.388682
1915000000.0,0.787443,0.354167
1922000000.0,0.796439,0.310929
1929000000.0,0.809058,0.275421
1936000000.0,0.820691,0.237026
1943000000.0,0.829325,0.19373
1950000000.0,0.833421,0.142816
1957000000.0,0.832713,0.098272
1964000000.0,0.834587,0.057258
1971000000.0,0.829795,0.002694
1978000000.0,0.822083,-0.032288
1985000000.0,0.813485,-0.075768
1992000000.0,0.7999,-0.128184
1999000000.0,0.785795,-0.167939
2006000000.0,0.767098,-0.202961
2013000000.0,0.746037,-0.247577
2020000000.0,0.720905,-0.285455
2027000000.0,0.69419,-0.309826
2034000000.0,0.666601,-0.337384
2041000000.0,0.633105,-0.366066
2048000000.0,0.605169,-0.387801
2055000000.0,0.589783,-0.387615
2062000000.0,0.539408,-0.427995
2069000000.0,0.540601,-0.409013
2076000000.0,0.472728,-0.457748
2083000000.0,0.443239,-0.462517
2090000000.0,0.410553,-0.467372
2097000000.0,0.388561,-0.468264
2104000000.0,0.365884,-0.469902
2111000000.0,0.336147,-0.472618
2118000000.0,0.324854,-0.4632
2125000000.0,0.307909,-0.465694
2132000000.0,0.293993,-0.466284
2139000000.0,0.275759,-0.471246
2146000000.0,0.272471,-0.473514
2153000000.0,0.254854,-0.480082
2160000000.0,0.23882,-0.489978
2167000000.0,0.215757,-0.501912
2174000000.0,0.197898,-0.51657
2181000000.0,0.172879,-0.525287
2188000000.0,0.145541,-0.537383
2195000000.0,0.117914,-0.54161
2202000000.0,0.079519,-0.541104
2209000000.0,0.056196,-0.534512
2216000000.0,0.026868,-0.52661
2223000000.0,0.071628,-0.516129
2230000000.0,-0.03033,-0.498227
2237000000.0,-0.030929,-0.485859
2244000000.0,-0.069356,-0.456802
2251000000.0,-0.08553,-0.434115
2258000000.0,-0.090964,-0.408128
2265000000.0,-0.096032,-0.382742
2272000000.0,-0.092362,-0.358857
2279000000.0,-0.092261,-0.334735
2286000000.0,-0.089422,-0.317192
2293000000.0,-0.078552,-0.304242
2300000000.0,-0.068325,-0.291645
2307000000.0,-0.054,-0.283818
2314000000.0,-0.038093,-0.283255
2321000000.0,-0.016275,-0.285451
2328000000.0,0.004953,-0.291334
2335000000.0,0.01909,-0.308697
2342000000.0,0.041221,-0.33085
2349000000.0,0.050797,-0.359089
2356000000.0,0.054821,-0.393181
2363000000.0,0.053707,-0.431856
2370000000.0,0.047318,-0.470676
2377000000.0,0.022217,-0.511393
2384000000.0,-0.01238,-0.549457
2391000000.0,-0.050447,-0.58065
2398000000.0,-0.101613,-0.608541
2405000000.0,-0.155429,-0.63029
2412000000.0,-0.210495,-0.644607
2419000000.0,-0.269504,-0.643797
2426000000.0,-0.319904,-0.639007
2433000000.0,-0.376601,-0.627944
2440000000.0,-0.433651,-0.611892
2447000000.0,-0.484704,-0.584791
2454000000.0,-0.534796,-0.554323
2461000000.0,-0.575098,-0.51613
2468000000.0,-0.609709,-0.48247
2475000000.0,-0.648814,-0.443091
2482000000.0,-0.682693,-0.38678
2489000000.0,-0.703199,-0.345269
2496000000.0,-0.728504,-0.2919
2503000000.0,-0.741192,-0.266277
2510000000.0,-0.754744,-0.207072
2517000000.0,-0.762567,-0.166654
2524000000.0,-0.769319,-0.108979
2531000000.0,-0.769046,-0.065495
2538000000.0,-0.761828,-0.015319
2545000000.0,-0.75913,0.032699
2552000000.0,-0.74943,0.081383
2559000000.0,-0.729289,0.133839
2566000000.0,-0.714119,0.177725
2573000000.0,-0.646748,0.311091
2580000000.0,-0.661947,0.263121
2587000000.0,-0.627147,0.300631
2594000000.0,-0.597542,0.329508
2601000000.0,-0.557254,0.355653
2608000000.0,-0.521611,0.370889
2615000000.0,-0.476591,0.389084
2622000000.0,-0.437446,0.389584
2629000000.0,-0.392891,0.397739
2636000000.0,-0.35832,0.392033
2643000000.0,-0.327138,0.379926
2650000000.0,-0.29896,0.375619
2657000000.0,-0.284246,0.359861
2664000000.0,-0.270764,0.345175
2671000000.0,-0.260087,0.333622
2678000000.0,-0.259554,0.323228
2685000000.0,-0.260387,0.314076
2692000000.0,-0.257241,0.311125
2699000000.0,-0.259393,0.312131
2706000000.0,-0.26476,0.311309
2713000000.0,-0.278545,0.309758
2720000000.0,-0.287977,0.317263
2727000000.0,-0.292754,0.330032
2734000000.0,-0.300841,0.342849
2741000000.0,-0.30738,0.358283
2748000000.0,-0.297364,0.379717
2755000000.0,-0.297711,0.39961
2762000000.0,-0.295044,0.419254
2769000000.0,-0.287672,0.443928
2776000000.0,-0.273245,0.470096
2783000000.0,-0.250507,0.495443
2790000000.0,-0.228475,0.524539
2797000000.0,-0.206776,0.545903
2804000000.0,-0.177421,0.570824
2811000000.0,-0.153056,0.597248
2818000000.0,-0.116851,0.618417
2825000000.0,-0.085235,0.630545
2832000000.0,-0.05181,0.641673
2839000000.0,-0.033094,0.654063
2846000000.0,0.000688,0.653346
2853000000.0,0.038545,0.652582
2860000000.0,0.076453,0.651127
2867000000.0,0.112367,0.641914
2874000000.0,0.155497,0.631952
2881000000.0,0.183957,0.620464
2888000000.0,0.209939,0.605391
2895000000.0,0.252252,0.599084
2902000000.0,0.271437,0.578932
2909000000.0,0.306428,0.559453
2916000000.0,0.319985,0.545045
2923000000.0,0.345985,0.524648
2930000000.0,0.364241,0.5103
2937000000.0,0.393453,0.482537
2944000000.0,0.406651,0.470155
2951000000.0,0.424014,0.448316
2958000000.0,0.44044,0.423486
2965000000.0,0.458776,0.400345
2972000000.0,0.47302,0.37676
2979000000.0,0.481068,0.358103
2986000000.0,0.491883,0.333977
2993000000.0,0.506961,0.308879
3000000000.0,0.520567,0.284228
