Frequency (Hz),Real Part,Imaginary Part
1600000000.0,-0.785777,0.523818
1607000000.0,-0.759058,0.564722
1614000000.0,-0.735051,0.593198
1621000000.0,-0.712296,0.625805
1628000000.0,-0.671693,0.663201
1635000000.0,-0.641361,0.691136
1642000000.0,-0.606415,0.718904
1649000000.0,-0.56467,0.746978
1656000000.0,-0.529492,0.772457
1663000000.0,-0.492506,0.794233
1670000000.0,-0.454889,0.815958
1677000000.0,-0.420313,0.832493
1684000000.0,-0.376435,0.853229
1691000000.0,-0.330201,0.871361
1698000000.0,-0.28693,0.886299
1705000000.0,-0.248128,0.901383
1712000000.0,-0.20205,0.90718
1719000000.0,-0.158828,0.916932
1726000000.0,-0.116757,0.920626
1733000000.0,-0.073568,0.925657
1740000000.0,-0.028709,0.926604
1747000000.0,0.009357,0.920743
1754000000.0,0.06197,0.91621
1761000000.0,0.106765,0.910813
1768000000.0,0.150821,0.898469
1775000000.0,0.186609,0.887898
1782000000.0,0.227245,0.878617
1789000000.0,0.263822,0.863862
1796000000.0,0.305912,0.848641
1803000000.0,0.35019,0.825257
1810000000.0,0.385697,0.808349
1817000000.0,0.425665,0.79046
1824000000.0,0.455632,0.768842
1831000000.0,0.496903,0.732018
1838000000.0,0.526369,0.709524
1845000000.0,0.561162,0.668939
1852000000.0,0.586477,0.649474
1859000000.0,0.611358,0.605712
1866000000.0,0.638114,0.577193
1873000000.0,0.665069,0.546027
1880000000.0,0.691158,0.506534
1887000000.0,0.712902,0.46586
1894000000.0,0.730002,0.429898
1901000000.0,0.752059,0.38431
1908000000.0,0.762326,0.333258
1915000000.0,0.770828,0.293932
1922000000.0,0.775675,0.255612
1929000000.0,0.781306,0.221423
1936000000.0,0.78388,0.178288
1943000000.0,0.784927,0.131569
1950000000.0,0.781624,0.088808
1957000000.0,0.775634,0.049939
1964000000.0,0.762918,0.009137
1971000000.0,0.750921,-0.030958
1978000000.0,0.730941,-0.062718
1985000000.0,0.711679,-0.103831
1992000000.0,0.690872,-0.131045
1999000000.0,0.669936,-0.158401
2006000000.0,0.641234,-0.189725
2013000000.0,0.619209,-0.203987
2020000000.0,0.592679,-0.218919
2027000000.0,0.565989,-0.235263
2034000000.0,0.545979,-0.23702
2041000000.0,0.524937,-0.242116
2048000000.0,0.511103,-0.243413
2055000000.0,0.500942,-0.244491
2062000000.0,0.493662,-0.243877
2069000000.0,0.49051,-0.249864
2076000000.0,0.486386,-0.259574
2083000000.0,0.523098,-0.212464
2090000000.0,0.494215,-0.280808
2097000000.0,0.500221,-0.30114
2104000000.0,0.506151,-0.318647
2111000000.0,0.50562,-0.345732
2118000000.0,0.499703,-0.378272
2125000000.0,0.49566,-0.408742
2132000000.0,0.487352,-0.436852
2139000000.0,0.460656,-0.472592
2146000000.0,0.429804,-0.506653
2153000000.0,0.400243,-0.53171
2160000000.0,0.368441,-0.556821
2167000000.0,0.321523,-0.583556
2174000000.0,0.285194,-0.597804
2181000000.0,0.239997,-0.613193
2188000000.0,0.192187,-0.617819
2195000000.0,0.157069,-0.6181
2202000000.0,0.111398,-0.611003
2209000000.0,0.072948,-0.598677
2216000000.0,0.040069,-0.585259
2223000000.0,0.011523,-0.562817
2230000000.0,-0.018351,-0.540854
2237000000.0,-0.042133,-0.517958
2244000000.0,-0.053923,-0.489123
2251000000.0,-0.072953,-0.464548
2258000000.0,-0.076641,-0.433197
2265000000.0,-0.075586,-0.4049
2272000000.0,-0.069961,-0.37868
2279000000.0,-0.063908,-0.356577
2286000000.0,-0.053547,-0.340716
2293000000.0,-0.043475,-0.329536
2300000000.0,-0.02445,-0.325265
2307000000.0,-0.009668,-0.324075
2314000000.0,0.010333,-0.333886
2321000000.0,0.036647,-0.349735
2328000000.0,0.059044,-0.369757
2335000000.0,0.069681,-0.403717
2342000000.0,0.076987,-0.439442
2349000000.0,0.071045,-0.482779
2356000000.0,0.054387,-0.523624
2363000000.0,0.027251,-0.566266
2370000000.0,-0.017696,-0.598169
2377000000.0,-0.046413,-0.633859
2384000000.0,-0.097821,-0.656977
2391000000.0,-0.149646,-0.6752
2398000000.0,-0.224685,-0.669585
2405000000.0,-0.273199,-0.676824
2412000000.0,-0.33768,-0.666707
2419000000.0,-0.385432,-0.655392
2426000000.0,-0.4408,-0.629712
2433000000.0,-0.387288,-0.671278
2440000000.0,-0.537034,-0.570659
2447000000.0,-0.56838,-0.546125
2454000000.0,-0.585782,-0.543168
2461000000.0,-0.635012,-0.48674
2468000000.0,-0.670216,-0.429783
2475000000.0,-0.697606,-0.394949
2482000000.0,-0.713151,-0.350592
2489000000.0,-0.736614,-0.305388
2496000000.0,-0.749699,-0.254222
2503000000.0,-0.764062,-0.219817
2510000000.0,-0.770721,-0.163916
2517000000.0,-0.771125,-0.136446
2524000000.0,-0.779118,-0.086353
2531000000.0,-0.778316,-0.034363
2538000000.0,-0.776002,0.014613
2545000000.0,-0.767429,0.053502
2552000000.0,-0.754399,0.102659
2559000000.0,-0.743967,0.143781
2566000000.0,-0.721739,0.19199
2573000000.0,-0.702734,0.236485
2580000000.0,-0.676706,0.276796
2587000000.0,-0.648111,0.311744
2594000000.0,-0.620598,0.340022
2601000000.0,-0.574078,0.37286
2608000000.0,-0.542705,0.389758
2615000000.0,-0.500883,0.405535
2622000000.0,-0.455194,0.42484
2629000000.0,-0.41438,0.428814
2636000000.0,-0.375717,0.427741
2643000000.0,-0.344096,0.425945
2650000000.0,-0.314295,0.418117
2657000000.0,-0.291095,0.403869
2664000000.0,-0.278735,0.389363
2671000000.0,-0.257079,0.385579
2678000000.0,-0.251331,0.371401
2685000000.0,-0.248591,0.360668
2692000000.0,-0.244956,0.355035
2699000000.0,-0.247467,0.351699
2706000000.0,-0.251223,0.353878
2713000000.0,-0.26238,0.349471
2720000000.0,-0.264997,0.357423
2727000000.0,-0.272889,0.363588
2734000000.0,-0.273772,0.380683
2741000000.0,-0.276641,0.390886
2748000000.0,-0.276943,0.405285
2755000000.0,-0.270219,0.425803
2762000000.0,-0.261834,0.445941
2769000000.0,-0.256112,0.469337
2776000000.0,-0.229094,0.493799
2783000000.0,-0.218314,0.512613
2790000000.0,-0.182838,0.538879
2797000000.0,-0.166656,0.558167
2804000000.0,-0.133605,0.5848
2811000000.0,-0.107195,0.597567
2818000000.0,-0.081675,0.615101
2825000000.0,-0.042952,0.624722
2832000000.0,-0.021219,0.637056
2839000000.0,0.009683,0.64238
2846000000.0,0.03964,0.642092
2853000000.0,0.084294,0.637635
2860000000.0,0.109098,0.635989
2867000000.0,0.143683,0.619611
2874000000.0,0.170773,0.610698
2881000000.0,0.208615,0.598062
2888000000.0,0.235879,0.589027
2895000000.0,0.259617,0.570548
2902000000.0,0.277838,0.562726
2909000000.0,0.313466,0.540104
2916000000.0,0.330252,0.526242
2923000000.0,0.357367,0.504904
2930000000.0,0.375304,0.487889
2937000000.0,0.399718,0.466614
2944000000.0,0.410967,0.451025
2951000000.0,0.426858,0.434045
2958000000.0,0.440395,0.416615
2965000000.0,0.453911,0.396397
2972000000.0,0.474475,0.365351
2979000000.0,0.487581,0.34326
2986000000.0,0.500172,0.325492
2993000000.0,0.51075,0.29554
3000000000.0,0.520376,0.276232
