Frequency (Hz),Real Part,Imaginary Part
1600000000.0,-0.78863,0.523522
1607000000.0,-0.769151,0.556417
1614000000.0,-0.735183,0.597438
1621000000.0,-0.720533,0.614547
1628000000.0,-0.67725,0.65662
1635000000.0,-0.644157,0.689587
1642000000.0,-0.612497,0.715433
1649000000.0,-0.571049,0.748418
1656000000.0,-0.530554,0.769453
1663000000.0,-0.498336,0.793887
1670000000.0,-0.465185,0.815711
1677000000.0,-0.418624,0.837824
1684000000.0,-0.389468,0.850059
1691000000.0,-0.320398,0.874732
1698000000.0,-0.295107,0.888068
1705000000.0,-0.254174,0.896028
1712000000.0,-0.208972,0.909245
1719000000.0,-0.201545,0.915302
1726000000.0,-0.125388,0.924905
1733000000.0,-0.080638,0.926739
1740000000.0,-0.041409,0.927321
1747000000.0,0.000156,0.924285
1754000000.0,0.045527,0.922189
1761000000.0,0.090184,0.917211
1768000000.0,0.128382,0.905686
1775000000.0,0.172275,0.893378
1782000000.0,0.212145,0.887643
1789000000.0,0.257002,0.87317
1796000000.0,0.299857,0.856065
1803000000.0,0.317276,0.845893
1810000000.0,0.3729,0.819435
1817000000.0,0.41104,0.80066
1824000000.0,0.44786,0.782706
1831000000.0,0.490944,0.75247
1838000000.0,0.521495,0.728444
1845000000.0,0.546667,0.701474
1852000000.0,0.563416,0.689586
1859000000.0,0.601411,0.645274
1866000000.0,0.624224,0.614672
1873000000.0,0.655669,0.581367
1880000000.0,0.688322,0.539715
1887000000.0,0.71333,0.504796
1894000000.0,0.734524,0.467814
1901000000.0,0.754824,0.432246
1908000000.0,0.769825,0.39355
1915000000.0,0.786205,0.350571
1922000000.0,0.795388,0.316232
1929000000.0,0.81125,0.271875
1936000000.0,0.81887,0.236854
1943000000.0,0.828438,0.185746
1950000000.0,0.833255,0.152837
1957000000.0,0.833262,0.102315
1964000000.0,0.8341,0.057791
1971000000.0,0.829664,0.019085
1978000000.0,0.822089,-0.017477
1985000000.0,0.814094,-0.06346
1992000000.0,0.80936,-0.095478
1999000000.0,0.792028,-0.15624
2006000000.0,0.777,-0.191357
2013000000.0,0.753826,-0.237962
2020000000.0,0.734231,-0.263316
2027000000.0,0.7097,-0.299231
2034000000.0,0.683309,-0.329418
2041000000.0,0.653148,-0.358734
2048000000.0,0.620278,-0.389892
2055000000.0,0.595935,-0.407791
2062000000.0,0.559786,-0.435261
2069000000.0,0.53153,-0.450124
2076000000.0,0.497081,-0.466352
2083000000.0,0.461057,-0.479088
2090000000.0,0.431988,-0.48409
2097000000.0,0.400483,-0.492139
2104000000.0,0.368883,-0.493172
2111000000.0,0.342616,-0.494124
2118000000.0,0.318045,-0.491261
2125000000.0,0.299604,-0.487914
2132000000.0,0.284436,-0.487115
2139000000.0,0.266585,-0.483201
2146000000.0,0.252558,-0.480937
2153000000.0,0.244237,-0.482138
2160000000.0,0.229767,-0.487943
2167000000.0,0.215783,-0.493971
2174000000.0,0.202676,-0.502873
2181000000.0,0.180641,-0.510972
2188000000.0,0.15884,-0.523387
2195000000.0,0.12957,-0.531855
2202000000.0,0.104535,-0.532766
2209000000.0,0.08157,-0.532707
2216000000.0,0.057757,-0.532662
2223000000.0,0.029861,-0.527007
2230000000.0,0.00642,-0.517464
2237000000.0,-0.015056,-0.507919
2244000000.0,-0.03866,-0.491326
2251000000.0,-0.055803,-0.475782
2258000000.0,-0.068123,-0.457679
2265000000.0,-0.078532,-0.435962
2272000000.0,-0.087888,-0.416425
2279000000.0,-0.092794,-0.395354
2286000000.0,-0.096433,-0.383146
2293000000.0,-0.103771,-0.368128
2300000000.0,-0.103464,-0.355796
2307000000.0,-0.10076,-0.347895
2314000000.0,-0.098257,-0.334232
2321000000.0,-0.084714,-0.330399
2328000000.0,-0.069749,-0.32485
2335000000.0,-0.052692,-0.329968
2342000000.0,-0.042046,-0.335802
2349000000.0,-0.026757,-0.350921
2356000000.0,-0.012887,-0.37522
2363000000.0,-0.005978,-0.405405
2370000000.0,0.03214,-0.441987
2377000000.0,-0.021721,-0.479435
2384000000.0,-0.051651,-0.517539
2391000000.0,-0.088846,-0.549744
2398000000.0,-0.134945,-0.578473
2405000000.0,-0.182571,-0.595803
2412000000.0,-0.239377,-0.612525
2419000000.0,-0.299873,-0.611811
2426000000.0,-0.351418,-0.603436
2433000000.0,-0.410479,-0.583845
2440000000.0,-0.458669,-0.562357
2447000000.0,-0.507421,-0.534858
2454000000.0,-0.541925,-0.509015
2461000000.0,-0.583479,-0.469085
2468000000.0,-0.623216,-0.432023
2475000000.0,-0.652939,-0.392518
2482000000.0,-0.681706,-0.341152
2489000000.0,-0.699343,-0.294701
2496000000.0,-0.721152,-0.245629
2503000000.0,-0.730502,-0.210041
2510000000.0,-0.743184,-0.14756
2517000000.0,-0.739753,-0.112844
2524000000.0,-0.743985,-0.056483
2531000000.0,-0.741605,-0.008402
2538000000.0,-0.731659,0.047358
2545000000.0,-0.717976,0.095688
2552000000.0,-0.669528,0.217831
2559000000.0,-0.675088,0.175657
2566000000.0,-0.649075,0.220571
2573000000.0,-0.621217,0.256792
2580000000.0,-0.579373,0.289774
2587000000.0,-0.54722,0.310336
2594000000.0,-0.51106,0.327267
2601000000.0,-0.470175,0.34493
2608000000.0,-0.43253,0.348491
2615000000.0,-0.395644,0.349821
2622000000.0,-0.367274,0.340318
2629000000.0,-0.335116,0.335829
2636000000.0,-0.309242,0.328228
2643000000.0,-0.291576,0.317755
2650000000.0,-0.283326,0.299171
2657000000.0,-0.278124,0.289823
2664000000.0,-0.276445,0.2818
2671000000.0,-0.278963,0.272712
2678000000.0,-0.280432,0.271697
2685000000.0,-0.284478,0.272421
2692000000.0,-0.289028,0.270991
2699000000.0,-0.296616,0.281134
2706000000.0,-0.303017,0.284635
2713000000.0,-0.312956,0.29853
2720000000.0,-0.325454,0.309926
2727000000.0,-0.327531,0.323299
2734000000.0,-0.331265,0.342037
2741000000.0,-0.328282,0.362204
2748000000.0,-0.323405,0.39038
2755000000.0,-0.318706,0.411872
2762000000.0,-0.307828,0.432637
2769000000.0,-0.294517,0.460284
2776000000.0,-0.273104,0.485543
2783000000.0,-0.252555,0.51073
2790000000.0,-0.22391,0.534425
2797000000.0,-0.20007,0.559403
2804000000.0,-0.166571,0.581119
2811000000.0,-0.140691,0.600515
2818000000.0,-0.10376,0.61793
2825000000.0,-0.073119,0.632733
2832000000.0,-0.054924,0.639617
2839000000.0,-0.01777,0.646806
2846000000.0,0.012587,0.645079
2853000000.0,0.047859,0.64388
2860000000.0,0.078605,0.637647
2867000000.0,0.112347,0.628272
2874000000.0,0.154252,0.619819
2881000000.0,0.188524,0.601088
2888000000.0,0.212766,0.595522
2895000000.0,0.246666,0.577338
2902000000.0,0.267606,0.566887
2909000000.0,0.292728,0.551406
2916000000.0,0.323887,0.528326
2923000000.0,0.342112,0.511502
2930000000.0,0.356783,0.499739
2937000000.0,0.379566,0.481041
2944000000.0,0.40131,0.454012
2951000000.0,0.41783,0.433809
2958000000.0,0.416709,0.429299
2965000000.0,0.443223,0.40002
2972000000.0,0.449232,0.390023
2979000000.0,0.470935,0.358695
2986000000.0,0.482256,0.345301
2993000000.0,0.504003,0.293567
3000000000.0,0.504434,0.294715
