Frequency (Hz),Real Part,Imaginary Part
1600000000.0,-0.783687,0.525672
1607000000.0,-0.76412,0.556214
1614000000.0,-0.730279,0.599474
1621000000.0,-0.708997,0.624912
1628000000.0,-0.675684,0.662342
1635000000.0,-0.640731,0.69552
1642000000.0,-0.606237,0.72268
1649000000.0,-0.564927,0.746969
1656000000.0,-0.523942,0.772988
1663000000.0,-0.492233,0.797392
1670000000.0,-0.451851,0.817398
1677000000.0,-0.408901,0.836973
1684000000.0,-0.376683,0.850477
1691000000.0,-0.333936,0.872792
1698000000.0,-0.28697,0.886795
1705000000.0,-0.247714,0.895032
1712000000.0,-0.196277,0.9091
1719000000.0,-0.156274,0.91459
1726000000.0,-0.112676,0.920792
1733000000.0,-0.074223,0.924039
1740000000.0,-0.025102,0.925451
1747000000.0,0.009534,0.924201
1754000000.0,0.054024,0.912408
1761000000.0,0.10808,0.908359
1768000000.0,0.146193,0.896745
1775000000.0,0.190273,0.888011
1782000000.0,0.222235,0.881067
1789000000.0,0.260964,0.863886
1796000000.0,0.311423,0.847515
1803000000.0,0.296907,0.850605
1810000000.0,0.382095,0.809868
1817000000.0,0.499566,0.731578
1824000000.0,0.455027,0.769978
1831000000.0,0.494557,0.736235
1838000000.0,0.527579,0.70961
1845000000.0,0.63844,0.597854
1852000000.0,0.580728,0.646492
1859000000.0,0.607562,0.622503
1866000000.0,0.634411,0.590639
1873000000.0,0.66398,0.548945
1880000000.0,0.689011,0.513482
1887000000.0,0.718834,0.4637
1894000000.0,0.738224,0.432981
1901000000.0,0.760512,0.380663
1908000000.0,0.763409,0.353946
1915000000.0,0.777106,0.299005
1922000000.0,0.782226,0.263147
1929000000.0,0.792282,0.21844
1936000000.0,0.795346,0.181661
1943000000.0,0.795763,0.133645
1950000000.0,0.791555,0.091121
1957000000.0,0.79036,0.054176
1964000000.0,0.775038,0.007221
1971000000.0,0.762018,-0.038366
1978000000.0,0.747312,-0.066108
1985000000.0,0.727851,-0.108788
1992000000.0,0.706267,-0.138765
1999000000.0,0.681055,-0.173741
2006000000.0,0.621462,-0.272052
2013000000.0,0.628111,-0.221641
2020000000.0,0.597471,-0.241199
2027000000.0,0.57004,-0.256974
2034000000.0,0.546528,-0.259847
2041000000.0,0.530028,-0.257211
2048000000.0,0.504289,-0.271558
2055000000.0,0.491658,-0.27222
2062000000.0,0.478819,-0.274143
2069000000.0,0.475391,-0.273656
2076000000.0,0.469101,-0.283463
2083000000.0,0.46887,-0.290114
2090000000.0,0.468914,-0.30203
2097000000.0,0.474732,-0.314698
2104000000.0,0.471342,-0.336314
2111000000.0,0.512438,-0.304398
2118000000.0,0.459817,-0.389991
2125000000.0,0.458218,-0.412803
2132000000.0,0.434633,-0.448644
2139000000.0,0.404256,-0.478882
2146000000.0,0.375509,-0.501907
2153000000.0,0.338308,-0.525542
2160000000.0,0.304524,-0.543704
2167000000.0,0.257954,-0.552358
2174000000.0,0.21435,-0.560532
2181000000.0,0.174276,-0.556375
2188000000.0,0.134432,-0.551856
2195000000.0,0.101073,-0.536615
2202000000.0,0.064428,-0.518551
2209000000.0,0.037729,-0.494843
2216000000.0,0.028972,-0.468658
2223000000.0,0.008526,-0.442087
2230000000.0,0.002349,-0.414338
2237000000.0,0.001824,-0.388696
2244000000.0,0.007056,-0.364461
2251000000.0,0.015052,-0.343237
2258000000.0,0.033144,-0.326834
2265000000.0,0.053638,-0.312735
2272000000.0,0.072939,-0.306967
2279000000.0,0.092306,-0.308662
2286000000.0,0.115841,-0.319915
2293000000.0,0.131436,-0.340764
2300000000.0,0.149152,-0.368667
2307000000.0,0.15222,-0.404549
2314000000.0,0.161694,-0.442551
2321000000.0,0.165985,-0.482313
2328000000.0,0.127448,-0.523455
2335000000.0,0.125906,-0.567229
2342000000.0,0.103288,-0.609467
2349000000.0,0.067604,-0.64301
2356000000.0,0.033234,-0.674601
2363000000.0,-0.023554,-0.701289
2370000000.0,-0.073105,-0.721393
2377000000.0,-0.125656,-0.732118
2384000000.0,-0.186099,-0.734924
2391000000.0,-0.241482,-0.727497
2398000000.0,-0.294696,-0.721588
2405000000.0,-0.242643,-0.764456
2412000000.0,-0.400973,-0.701818
2419000000.0,-0.454299,-0.676407
2426000000.0,-0.499475,-0.647423
2433000000.0,-0.550001,-0.610409
2440000000.0,-0.587208,-0.582782
2447000000.0,-0.620351,-0.544899
2454000000.0,-0.660239,-0.498345
2461000000.0,-0.68852,-0.457862
2468000000.0,-0.72112,-0.408749
2475000000.0,-0.741567,-0.372448
2482000000.0,-0.757346,-0.329057
2489000000.0,-0.770815,-0.281396
2496000000.0,-0.786345,-0.232383
2503000000.0,-0.79303,-0.20074
2510000000.0,-0.79527,-0.14312
2517000000.0,-0.797283,-0.103085
2524000000.0,-0.797481,-0.047474
2531000000.0,-0.793894,-0.0034
2538000000.0,-0.785433,0.040124
2545000000.0,-0.769059,0.085945
2552000000.0,-0.761279,0.143263
2559000000.0,-0.738795,0.177941
2566000000.0,-0.723086,0.224655
2573000000.0,-0.693951,0.262179
2580000000.0,-0.666811,0.298212
2587000000.0,-0.639007,0.330746
2594000000.0,-0.603509,0.355743
2601000000.0,-0.559922,0.393489
2608000000.0,-0.525877,0.403291
2615000000.0,-0.486761,0.414141
2622000000.0,-0.440549,0.427829
2629000000.0,-0.413774,0.425851
2636000000.0,-0.346369,0.440934
2643000000.0,-0.341024,0.419006
2650000000.0,-0.312582,0.408255
2657000000.0,-0.289139,0.402139
2664000000.0,-0.274928,0.393978
2671000000.0,-0.258471,0.381436
2678000000.0,-0.260888,0.3671
2685000000.0,-0.253455,0.360906
2692000000.0,-0.251613,0.360532
2699000000.0,-0.253656,0.357252
2706000000.0,-0.260119,0.356121
2713000000.0,-0.310768,0.327911
2720000000.0,-0.274249,0.365622
2727000000.0,-0.270999,0.37687
2734000000.0,-0.278578,0.387171
2741000000.0,-0.2717,0.403635
2748000000.0,-0.276023,0.417401
2755000000.0,-0.279597,0.434887
2762000000.0,-0.264867,0.45482
2769000000.0,-0.252659,0.476539
2776000000.0,-0.234783,0.5033
2783000000.0,-0.211157,0.52563
2790000000.0,-0.18488,0.545548
2797000000.0,-0.166024,0.568221
2804000000.0,-0.133825,0.591204
2811000000.0,-0.111497,0.605097
2818000000.0,-0.068245,0.624285
2825000000.0,-0.048058,0.638469
2832000000.0,-0.016462,0.642821
2839000000.0,0.012757,0.645461
2846000000.0,0.048595,0.648042
2853000000.0,0.076641,0.648126
2860000000.0,0.104648,0.643964
2867000000.0,0.152362,0.635527
2874000000.0,0.174833,0.627173
2881000000.0,0.22143,0.607695
2888000000.0,0.243926,0.596817
2895000000.0,0.269545,0.577548
2902000000.0,0.295788,0.567889
2909000000.0,0.32242,0.550169
2916000000.0,0.347335,0.528822
2923000000.0,0.36646,0.514622
2930000000.0,0.394968,0.488446
2937000000.0,0.416897,0.46492
2944000000.0,0.429943,0.448835
2951000000.0,0.445862,0.430272
2958000000.0,0.454865,0.414419
2965000000.0,0.469385,0.385937
2972000000.0,0.482329,0.365875
2979000000.0,0.498172,0.343329
2986000000.0,0.509455,0.313691
2993000000.0,0.523913,0.291423
3000000000.0,0.530912,0.270338
