Freq (Hz),s21avg
2200000000.0,-1.0548094928828118
2200800800.800801,-1.0665593973561323
2201601601.6016016,-1.0783093018294525
2202402402.4024024,-1.090059206302773
2203203203.203203,-1.1018091107760937
2204004004.004004,-1.117272152892654
2204804804.804805,-1.133455654551934
2205605605.6056056,-1.1496391562112143
2206406406.4064064,-1.165822657870494
2207207207.207207,-1.1820061595297744
2208008008.008008,-1.1847394844814614
2208808808.808809,-1.1849583847073928
2209609609.6096096,-1.1851772849333242
2210410410.4104104,-1.1853961851592554
2211211211.211211,-1.1856150853851868
2212012012.012012,-1.2036415358735952
2212812812.812813,-1.2248722948163182
2213613613.6136136,-1.2461030537590412
2214414414.4144144,-1.2673338127017644
2215215215.215215,-1.288564571644488
2216016016.016016,-1.29213921450351
2216816816.816817,-1.2926589868377811
2217617617.6176176,-1.2931787591720514
2218418418.4184184,-1.2936985315063223
2219219219.219219,-1.2942183038405934
2220020020.02002,-1.3080189146343113
2220820820.820821,-1.3240265452303317
2221621621.6216216,-1.3400341758263523
2222422422.4224224,-1.3560418064223725
2223223223.223223,-1.372049437018393
2224024024.024024,-1.3816281821771057
2224824824.824825,-1.3901820325559557
2225625625.6256256,-1.3987358829348049
2226426426.4264264,-1.4072897333136547
2227227227.227227,-1.4158435836925045
2228028028.028028,-1.4350696100846156
2228828828.828829,-1.455925680651666
2229629629.6296296,-1.476781751218716
2230430430.4304304,-1.497637821785766
2231231231.231231,-1.518493892352816
2232032032.032032,-1.5291720157780537
2232832832.832833,-1.5383628174146566
2233633633.6336336,-1.5475536190512595
2234434434.4344344,-1.5567444206878625
2235235235.235235,-1.5659352223244656
2236036036.036036,-1.5957532271750563
2236836836.836837,-1.6284508131011097
2237637637.6376376,-1.6611483990271636
2238438438.4384384,-1.6938459849532177
2239239239.239239,-1.7265435708792716
2240040040.04004,-1.7360635809097729
2240840840.840841,-1.7424976247445416
2241641641.6416416,-1.7489316685793115
2242442442.4424424,-1.75536571241408
2243243243.243243,-1.7617997562488492
2244044044.044044,-1.7910215051165521
2244844844.844845,-1.823131836312379
2245645645.6456456,-1.8552421675082076
2246446446.4464464,-1.887352498704035
2247247247.247247,-1.9194628298998626
2248048048.048048,-1.937166625952367
2248848848.848849,-1.9531351810772393
2249649649.6496496,-1.9691037362021127
2250450450.4504504,-1.9850722913269854
2251251251.251251,-2.0010408464518585
2252052052.052052,-2.027624088767118
2252852852.852853,-2.0554195934077453
2253653653.6536536,-2.083215098048372
2254454454.4544544,-2.111010602689
2255255255.255255,-2.1388061073296267
2256056056.056056,-2.176841374442284
2256856856.856857,-2.21598287628184
2257657657.6576576,-2.255124378121395
2258458458.4584584,-2.2942658799609505
2259259259.259259,-2.3334073818005066
2260060060.06006,-2.362494865390633
2260860860.860861,-2.390557559241835
2261661661.6616616,-2.4186202530930365
2262462462.4624624,-2.4466829469442377
2263263263.263263,-2.47474564079544
2264064064.064064,-2.52296149352198
2264864864.864865,-2.5731098409352025
2265665665.6656656,-2.623258188348425
2266466466.4664664,-2.673406535761649
2267267267.267267,-2.723554883174872
2268068068.068068,-2.7635618052584543
2268868868.868869,-2.802656828061711
2269669669.6696696,-2.841751850864967
2270470470.4704704,-2.880846873668223
2271271271.271271,-2.919941896471481
2272072072.072072,-2.9709982742017345
2272872872.872873,-3.0230595354082435
2273673673.6736736,-3.075120796614752
2274474474.4744744,-3.1271820578212606
2275275275.275275,-3.179243319027769
2276076076.076076,-3.2361337227419993
2276876876.876877,-3.293401606598346
2277677677.6776776,-3.3506694904546905
2278478478.4784784,-3.407937374311035
2279279279.279279,-3.465205258167381
2280080080.08008,-3.5170373495571416
2280880880.880881,-3.5684759653528055
2281681681.6816816,-3.619914581148467
2282482482.4824824,-3.6713531969441315
2283283283.283283,-3.722791812739794
2284084084.084084,-3.80467059125091
2284884884.884885,-3.8885787139430623
2285685685.6856856,-3.9724868366352157
2286486486.4864864,-4.056394959327369
2287287287.287287,-4.140303082019522
2288088088.088088,-4.197464184014217
2288888888.888889,-4.252993504905344
2289689689.6896896,-4.308522825796475
2290490490.4904904,-4.3640521466876026
2291291291.291291,-4.419581467578731
2292092092.092092,-4.507593499585651
2292892892.892893,-4.597405365190025
2293693693.6936936,-4.687217230794399
2294494494.4944944,-4.777029096398771
2295295295.2952952,-4.866840962003146
2296096096.096096,-4.944121794956404
2296896896.896897,-5.020777720769578
2297697697.6976976,-5.09743364658275
2298498498.4984984,-5.174089572395925
2299299299.2992992,-5.250745498209097
2300100100.1001,-5.344579493446381
2300900900.900901,-5.439175961739047
2301701701.7017016,-5.533772430031713
2302502502.5025024,-5.62836889832438
2303303303.3033032,-5.722965366617046
2304104104.104104,-5.8288547611476655
2304904904.904905,-5.935184139817432
2305705705.7057056,-6.041513518487196
2306506506.5065064,-6.147842897156961
2307307307.3073072,-6.254172275826729
2308108108.108108,-6.361143026226217
2308908908.908909,-6.468135321412492
2309709709.7097096,-6.575127616598768
2310510510.5105104,-6.682119911785042
2311311311.3113112,-6.7891122069713195
2312112112.112112,-6.9039536172490985
2312912912.912913,-7.019016981938203
2313713713.7137136,-7.134080346627312
2314514514.5145144,-7.249143711316417
2315315315.3153152,-7.364207076005528
2316116116.116116,-7.482626623095578
2316916916.916917,-7.601123422465956
2317717717.7177176,-7.719620221836332
2318518518.5185184,-7.838117021206713
2319319319.3193192,-7.956613820577089
2320120120.12012,-8.064698213096817
2320920920.920921,-8.172597142899095
2321721721.7217216,-8.280496072701379
2322522522.5225224,-8.388395002503657
2323323323.3233232,-8.496293932305935
2324124124.124124,-8.615971413017727
2324924924.924925,-8.735797989310656
2325725725.7257257,-8.855624565603584
2326526526.5265265,-8.97545114189651
2327327327.3273273,-9.095277718189438
2328128128.128128,-9.207364919373878
2328928928.928929,-9.31939363661544
2329729729.7297297,-9.431422353856993
2330530530.5305305,-9.543451071098554
2331331331.3313313,-9.65547978834011
2332132132.132132,-9.761211665230272
2332932932.932933,-9.866927760565666
2333733733.7337337,-9.972643855901064
2334534534.5345345,-10.078359951236456
2335335335.3353353,-10.18406203899783
2336136136.136136,-10.2841751047235
2336936936.936937,-10.384288170449173
2337737737.7377377,-10.484401236174845
2338538538.5385385,-10.584514301900517
2339339339.3393393,-10.684441552103603
2340140140.14014,-10.759779214816556
2340940940.940941,-10.835116877529503
2341741741.7417417,-10.910454540242453
2342542542.5425425,-10.9857922029554
2343343343.3433433,-11.061001686949554
2344144144.144144,-11.126085052158343
2344944944.944945,-11.19116841736714
2345745745.7457457,-11.256251782575925
2346546546.5465465,-11.32133514778472
2347347347.3473473,-11.385947354940559
2348148148.148148,-11.424107402837503
2348948948.948949,-11.46226745073444
2349749749.7497497,-11.500427498631382
2350550550.5505505,-11.538587546528325
2351351351.3513513,-11.576405431133548
2352152152.152152,-11.599358221620669
2352952952.952953,-11.622311012107787
2353753753.7537537,-11.645263802594906
2354554554.5545545,-11.668216593082025
2355355355.3553553,-11.690699264905625
2356156156.156156,-11.696556831264608
2356956956.956957,-11.702414397623595
2357757757.7577577,-11.708271963982583
2358558558.5585585,-11.71412953034157
2359359359.3593593,-11.719273885571704
2360160160.16016,-11.703186494119706
2360960960.960961,-11.687099102667705
2361761761.7617617,-11.671011711215709
2362562562.5625625,-11.65492431976371
2363363363.3633633,-11.638410637625471
2364164164.164164,-11.610955494540217
2364964964.964965,-11.583500351454969
2365765765.7657657,-11.556045208369715
2366566566.5665665,-11.528590065284464
2367367367.3673673,-11.500376580849652
2368168168.168168,-11.45507811189228
2368968968.968969,-11.40977964293492
2369769769.7697697,-11.36448117397755
2370570570.5705705,-11.319182705020188
2371371371.3713713,-11.274030867568285
2372172172.172172,-11.231819377673352
2372972972.972973,-11.189607887778424
2373773773.7737737,-11.147396397883492
2374574574.5745745,-11.105184907988564
2375375375.3753753,-11.062278471820752
2376176176.176176,-11.00682991006134
2376976976.976977,-10.951381348301933
2377777777.7777777,-10.895932786542517
2378578578.5785785,-10.840484224783108
2379379379.3793793,-10.785076338896062
2380180180.18018,-10.73033518361255
2380980980.980981,-10.675594028329037
2381781781.7817817,-10.620852873045523
2382582582.5825825,-10.56611171776201
2383383383.3833833,-10.511450836763935
2384184184.184184,-10.457994070047373
2384984984.984985,-10.40453730333082
2385785785.7857857,-10.351080536614264
2386586586.5865865,-10.297623769897708
2387387387.3873873,-10.244216225558683
2388188188.188188,-10.191488679249936
2388988988.988989,-10.13876113294119
2389789789.7897897,-10.086033586632444
2390590590.5905905,-10.0333060403237
2391391391.3913913,-9.980805158427676
2392192192.192192,-9.93120401781171
2392992992.992993,-9.881602877195737
2393793793.7937937,-9.832001736579766
2394594594.5945945,-9.7824005959638
2395395395.3953953,-9.733161928976939
2396196196.196196,-9.688237867446281
2396996996.996997,-9.643313805915612
2397797797.7977977,-9.59838974438495
2398598598.5985985,-9.55346568285429
2399399399.3993993,-9.509174469647718
2400200200.2002,-9.47192129689398
2401001001.001001,-9.434668124140243
2401801801.8018017,-9.39741495138651
2402602602.6026025,-9.360161778632774
2403403403.4034033,-9.322987412588496
2404204204.204204,-9.286634887942876
2405005005.005005,-9.250282363297254
2405805805.8058057,-9.213929838651634
2406606606.6066065,-9.177577314006012
2407407407.4074073,-9.142155150275856
2408208208.208208,-9.115860581473134
2409009009.009009,-9.08956601267041
2409809809.8098097,-9.063271443867686
2410610610.6106105,-9.036976875064965
2411411411.4114113,-9.011191997488107
2412212212.212212,-8.990125031001996
2413013013.013013,-8.969058064515881
2413813813.8138137,-8.947991098029773
2414614614.6146145,-8.926924131543661
2415415415.4154153,-8.907682885403842
2416216216.216216,-8.904427824735306
2417017017.017017,-8.901172764066764
2417817817.8178177,-8.897917703398226
2418618618.6186185,-8.89466264272969
2419419419.4194193,-8.891784596856755
2420220220.22022,-8.892036650565982
2421021021.021021,-8.89228870427521
2421821821.8218217,-8.892540757984436
2422622622.6226225,-8.892792811693662
2423423423.4234233,-8.893791515776508
2424224224.224224,-8.900680461695732
2425025025.025025,-8.907569407614956
2425825825.8258257,-8.914458353534178
2426626626.6266265,-8.921347299453405
2427427427.4274273,-8.929814166737767
2428228228.228228,-8.95013223065824
2429029029.029029,-8.970450294578704
2429829829.8298297,-8.990768358499176
2430630630.6306305,-9.011086422419647
2431431431.4314313,-9.033184783027364
2432232232.232232,-9.068035881129486
2433033033.033033,-9.102886979231613
2433833833.8338337,-9.137738077333738
2434634634.6346345,-9.172589175435862
2435435435.4354353,-9.207792531916548
2436236236.236236,-9.245406440830935
2437037037.037037,-9.283020349745316
2437837837.8378377,-9.320634258659698
2438638638.6386385,-9.358248167574079
2439439439.4394393,-9.399176894774838
2440240240.24024,-9.46180830019026
2441041041.041041,-9.52443970560568
2441841841.8418417,-9.5870711110211
2442642642.6426425,-9.649702516436522
2443443443.4434433,-9.71193641099824
2444244244.244244,-9.771676828386704
2445045045.045045,-9.831417245775167
2445845845.8458457,-9.89115766316363
2446646646.6466465,-9.950898080552097
2447447447.4474473,-10.01149150939273
2448248248.248248,-10.077217972059588
2449049049.049049,-10.142944434726445
2449849849.8498497,-10.2086708973933
2450650650.6506505,-10.274397360060158
2451451451.4514513,-10.344505391551746
2452252252.252252,-10.439937405572852
2453053053.053053,-10.535369419593946
2453853853.8538537,-10.630801433615039
2454654654.6546545,-10.72623344763614
2455455455.4554553,-10.81846857920548
2456256256.256256,-10.89293742960843
2457057057.057057,-10.967406280011382
2457857857.8578577,-11.041875130414336
2458658658.6586585,-11.116343980817287
2459459459.4594593,-11.19654005368944
2460260260.26026,-11.307372221357241
2461061061.061061,-11.418204389025039
2461861861.8618617,-11.52903655669284
2462662662.6626625,-11.639868724360646
2463463463.4634633,-11.748246772157987
2464264264.264264,-11.843976663699852
2465065065.065065,-11.939706555241713
2465865865.8658657,-12.035436446783576
2466666666.6666665,-12.131166338325436
2467467467.4674673,-12.22733319245983
2468268268.268268,-12.325671815897415
2469069069.069069,-12.424010439335
2469869869.8698697,-12.522349062772584
2470670670.6706705,-12.620687686210166
2471471471.4714713,-12.721215883232833
2472272272.272272,-12.832247686873808
2473073073.073073,-12.94327949051478
2473873873.8738737,-13.054311294155749
2474674674.6746745,-13.165343097796727
2475475475.4754753,-13.272806145370861
2476276276.276276,-13.363732281029598
2477077077.077077,-13.454658416688337
2477877877.8778777,-13.545584552347076
2478678678.6786785,-13.636510688005817
2479479479.4794793,-13.726814950264815
2480280280.28028,-13.814333560445515
2481081081.081081,-13.901852170626224
2481881881.8818817,-13.989370780806922
2482682682.6826825,-14.07688939098763
2483483483.4834833,-14.160041687581291
2484284284.284284,-14.224273291964389
2485085085.085085,-14.288504896347494
2485885885.8858857,-14.352736500730598
2486686686.6866865,-14.416968105113702
2487487487.4874873,-14.475183109487576
2488288288.288288,-14.508159648887585
2489089089.089089,-14.541136188287595
2489889889.8898897,-14.574112727687606
2490690690.6906905,-14.60708926708762
2491491491.4914913,-14.640142298219153
2492292292.292292,-14.673506137525617
2493093093.093093,-14.706869976832087
2493893893.8938937,-14.740233816138554
2494694694.6946945,-14.77359765544502
2495495495.4954953,-14.792586147254944
2496296296.296296,-14.754960616207955
2497097097.097097,-14.71733508516097
2497897897.8978977,-14.679709554113979
2498698698.6986985,-14.642084023066989
2499499499.4994993,-14.602423785254803
2500300300.3003,-14.554992438471894
2501101101.101101,-14.507561091688986
2501901901.9019017,-14.460129744906087
2502702702.7027025,-14.412698398123181
2503503503.5035033,-14.361126324232982
2504304304.304304,-14.294209202827497
2505105105.105105,-14.227292081422016
2505905905.9059057,-14.16037496001653
2506706706.7067065,-14.093457838611041
2507507507.5075073,-14.021197732978441
2508308308.308308,-13.929715166850526
2509109109.109109,-13.838232600722614
2509909909.9099097,-13.7467500345947
2510710710.7107105,-13.655267468466791
2511511511.5115113,-13.564887977963005
2512312312.312312,-13.478363055089606
2513113113.113113,-13.391838132216208
2513913913.9139137,-13.305313209342811
2514714714.7147145,-13.218788286469414
2515515515.5155153,-13.127922055406026
2516316316.316316,-13.022314459170014
2517117117.117117,-12.916706862934003
2517917917.9179177,-12.811099266697992
2518718718.7187185,-12.70549167046198
2519519519.5195193,-12.601067035235044
2520320320.32032,-12.500547443339162
2521121121.121121,-12.400027851443282
2521921921.9219217,-12.2995082595474
2522722722.7227225,-12.198988667651518
2523523523.5235233,-12.098839169624815
2524324324.324324,-11.999877867704434
2525125125.125125,-11.900916565784055
2525925925.9259257,-11.801955263863674
2526726726.7267265,-11.702993961943287
2527527527.5275273,-11.602110786094816
2528328328.328328,-11.495224230862682
2529129129.129129,-11.388337675630554
2529929929.9299297,-11.281451120398422
2530730730.7307305,-11.174564565166293
2531531531.5315313,-11.070020747378418
2532332332.332332,-10.972599797981706
2533133133.133133,-10.875178848584993
2533933933.9339337,-10.777757899188272
2534734734.7347345,-10.680336949791563
2535535535.5355353,-10.583122258360678
2536336336.336336,-10.486518172194996
2537137137.137137,-10.38991408602931
2537937937.9379377,-10.293309999863627
2538738738.7387385,-10.196705913697938
2539539539.5395393,-10.099910315201631
2540340340.34034,-10.00256249182963
2541141141.141141,-9.905214668457635
2541941941.9419417,-9.807866845085636
2542742742.7427425,-9.710519021713639
2543543543.5435433,-9.615164874237182
2544344344.344344,-9.525412006657746
2545145145.145145,-9.4356591390783
2545945945.9459457,-9.345906271498865
2546746746.7467465,-9.25615340391942
2547547547.5475473,-9.167358041265427
2548348348.348348,-9.081184631351203
2549149149.149149,-8.995011221436979
2549949949.9499497,-8.908837811522757
2550750750.7507505,-8.822664401608536
2551551551.5515513,-8.736152175732997
2552352352.352352,-8.648735404492841
2553153153.153153,-8.561318633252688
2553953953.9539537,-8.473901862012534
2554754754.7547545,-8.38648509077238
2555555555.5555553,-8.30005211681542
2556356356.356356,-8.21618056101021
2557157157.157157,-8.132309005205
2557957957.9579577,-8.048437449399795
2558758758.7587585,-7.964565893594586
2559559559.55956,-7.880947804315739
2560360360.36036,-7.79797347515275
2561161161.1611614,-7.714999145989662
2561961961.9619617,-7.632024816826672
2562762762.762763,-7.549050487663584
2563563563.5635633,-7.46706861912114
2564364364.3643646,-7.387546326899089
2565165165.165165,-7.308024034677133
2565965965.965966,-7.2285017424550775
2566766766.7667665,-7.148979450233122
2567567567.567568,-7.070481617956395
2568368368.368368,-6.994461752897942
2569169169.1691694,-6.918441887839396
2569969969.9699697,-6.8424220227809425
2570770770.770771,-6.766402157722399
2571571571.5715714,-6.692140581260547
2572372372.3723726,-6.622030929972111
2573173173.173173,-6.551921278683756
2573973973.973974,-6.481811627395322
2574774774.7747746,-6.411701976106971
2575575575.575576,-6.341060800191778
2576376376.376376,-6.269194042699277
2577177177.1771774,-6.197327285206688
2577977977.9779778,-6.1254605277141865
2578778778.778779,-6.0535937702216005
2579579579.5795794,-5.98606965819998
2580380380.3803806,-5.928325325002977
2581181181.181181,-5.870580991806042
2581981981.981982,-5.812836658609038
2582782782.7827826,-5.755092325412103
2583583583.583584,-5.694899640795317
2584384384.384384,-5.629320583055095
2585185185.1851854,-5.563741525314792
2585985985.9859858,-5.498162467574569
2586786786.786787,-5.43258340983427
2587587587.5875874,-5.370535074265394
2588388388.3883886,-5.316076401316766
2589189189.189189,-5.261617728368206
2589989989.98999,-5.207159055419581
2590790790.7907906,-5.15270038247102
2591591591.591592,-5.098510433187717
2592392392.392392,-5.044885011914577
2593193193.1931934,-4.991259590641374
2593993993.9939938,-4.937634169368238
2594794794.794795,-4.884008748095035
2595595595.5955954,-4.833282348007217
2596396396.3963966,-4.788508899818989
2597197197.197197,-4.743735451630813
2597997997.997998,-4.698962003442586
2598798798.7987986,-4.654188555254408
2599599599.5996,-4.607817488610558
2600400400.4004,-4.558239172886682
2601201201.2012014,-4.508660857162748
2602002002.002002,-4.459082541438873
2602802802.802803,-4.4095042257149375
2603603603.6036034,-4.365970998583697
2604404404.4044046,-4.334304056467611
2605205205.205205,-4.302637114351564
2606006006.0060062,-4.270970172235477
2606806806.8068066,-4.239303230119428
2607607607.607608,-4.2045697526884585
2608408408.408408,-4.163949422791736
2609209209.2092094,-4.123329092894967
2610010010.01001,-4.082708762998245
2610810810.810811,-4.042088433101477
2611611611.6116114,-4.004654262228136
2612412412.4124126,-3.9732027352763577
2613213213.213213,-3.9417512083246207
2614014014.0140142,-3.9102996813728454
2614814814.8148146,-3.878848154421108
2615615615.615616,-3.848528185784781
2616416416.416416,-3.8202867533449516
2617217217.2172174,-3.792045320905088
2618018018.018018,-3.76380388846526
2618818818.818819,-3.7355624560253946
2619619619.6196194,-3.705594808413169
2620420420.4204206,-3.6725248020644914
2621221221.221221,-3.639454795715854
2622022022.0220222,-3.606384789367175
