Freq (Hz),Real Part,Imaginary Part
2200000000.0,0.606352,0.37523
2204000000.0,0.620878,0.355379
2208000000.0,0.649028,0.284932
2212000000.0,0.651128,0.259634
2216000000.0,0.669824,0.216979
2220000000.0,0.687662,0.178275
2224000000.0,0.69291,0.134949
2228000000.0,0.696859,0.092749
2232000000.0,0.69401,0.043393
2236000000.0,0.692173,-0.006509
2240000000.0,0.68979,-0.046465
2244000000.0,0.678455,-0.087616
2248000000.0,0.661518,-0.131259
2252000000.0,0.645921,-0.174438
2256000000.0,0.617793,-0.221065
2260000000.0,0.593389,-0.245631
2264000000.0,0.567176,-0.283219
2268000000.0,0.533117,-0.321005
2272000000.0,0.502335,-0.337541
2276000000.0,0.466498,-0.362707
2280000000.0,0.421657,-0.387932
2284000000.0,0.378113,-0.402753
2288000000.0,0.343492,-0.406001
2292000000.0,0.305223,-0.411434
2296000000.0,0.271041,-0.409669
2300000000.0,0.235937,-0.405822
2304000000.0,0.213802,-0.379415
2308000000.0,0.199847,-0.362136
2312000000.0,0.184367,-0.341692
2316000000.0,0.175362,-0.318111
2320000000.0,0.171092,-0.29169
2324000000.0,0.17332,-0.264631
2328000000.0,0.164645,-0.250428
2332000000.0,0.170332,-0.223064
2336000000.0,0.173952,-0.208057
2340000000.0,0.18295,-0.18817
2344000000.0,0.188354,-0.172106
2348000000.0,0.195973,-0.163115
2352000000.0,0.204563,-0.150257
2356000000.0,0.215411,-0.138988
2360000000.0,0.226129,-0.132501
2364000000.0,0.233895,-0.12686
2368000000.0,0.245371,-0.119488
2372000000.0,0.253763,-0.123204
2376000000.0,0.263055,-0.118126
2380000000.0,0.270581,-0.123379
2384000000.0,0.280068,-0.121526
2388000000.0,0.285295,-0.128173
2392000000.0,0.295893,-0.130101
2396000000.0,0.294684,-0.141799
2400000000.0,0.300327,-0.147901
2404000000.0,0.301475,-0.152779
2408000000.0,0.302403,-0.159976
2412000000.0,0.294631,-0.169624
2416000000.0,0.289913,-0.177278
2420000000.0,0.284471,-0.186519
2424000000.0,0.278039,-0.190525
2428000000.0,0.261805,-0.196589
2432000000.0,0.253017,-0.197293
2436000000.0,0.245423,-0.197134
2440000000.0,0.232737,-0.191698
2444000000.0,0.220488,-0.191165
2448000000.0,0.210094,-0.186457
2452000000.0,0.201775,-0.181871
2456000000.0,0.18924,-0.167682
2460000000.0,0.177984,-0.158199
2464000000.0,0.171526,-0.145497
2468000000.0,0.162091,-0.135396
2472000000.0,0.162359,-0.120515
2476000000.0,0.159847,-0.104783
2480000000.0,0.158805,-0.090011
2484000000.0,0.160406,-0.073711
2488000000.0,0.162194,-0.059633
2492000000.0,0.167128,-0.04176
2496000000.0,0.17472,-0.028185
2500000000.0,0.183034,-0.019904
2504000000.0,0.188676,-0.002447
2508000000.0,0.199409,0.008749
2512000000.0,0.211993,0.020259
2516000000.0,0.220714,0.030936
2520000000.0,0.232994,0.03607
2524000000.0,0.24972,0.042885
2528000000.0,0.257553,0.050001
2532000000.0,0.270853,0.066692
2536000000.0,0.284104,0.070121
2540000000.0,0.303409,0.073472
2544000000.0,0.316839,0.079163
2548000000.0,0.326768,0.081584
2552000000.0,0.347856,0.076272
2556000000.0,0.364251,0.078088
2560000000.0,0.378765,0.087632
2564000000.0,0.39889,0.084147
2568000000.0,0.419778,0.090988
2572000000.0,0.437253,0.075814
2576000000.0,0.460077,0.075812
2580000000.0,0.473521,0.065057
2584000000.0,0.491189,0.074684
2588000000.0,0.508763,0.056659
2592000000.0,0.536589,0.03822
2596000000.0,0.545699,0.027879
2600000000.0,0.569272,0.014548
2604000000.0,0.582185,-0.005432
2608000000.0,0.601098,-0.027344
2612000000.0,0.617486,-0.043431
2616000000.0,0.626401,-0.051226
2620000000.0,0.631554,-0.071405
2624000000.0,0.646434,-0.113485
2628000000.0,0.655432,-0.108678
2632000000.0,0.667124,-0.132874
2636000000.0,0.663028,-0.166697
2640000000.0,0.674854,-0.171657
2644000000.0,0.679298,-0.209053
2648000000.0,0.680583,-0.224804
2652000000.0,0.688405,-0.253173
2656000000.0,0.692167,-0.265336
2660000000.0,0.689614,-0.286851
2664000000.0,0.68726,-0.306754
2668000000.0,0.689529,-0.340726
2672000000.0,0.680785,-0.358801
2676000000.0,0.674094,-0.38805
2680000000.0,0.676159,-0.403778
2684000000.0,0.670755,-0.428043
2688000000.0,0.649973,-0.460129
2692000000.0,0.644917,-0.501129
2696000000.0,0.634409,-0.490463
2700000000.0,0.610723,-0.517304
2704000000.0,0.589797,-0.547449
2708000000.0,0.576221,-0.560847
2712000000.0,0.550157,-0.579568
2716000000.0,0.534044,-0.596444
2720000000.0,0.512086,-0.606576
2724000000.0,0.505437,-0.612085
2728000000.0,0.475512,-0.634631
2732000000.0,0.454282,-0.644011
2736000000.0,0.415924,-0.657177
2740000000.0,0.409682,-0.671827
2744000000.0,0.398353,-0.658465
2748000000.0,0.379972,-0.667534
2752000000.0,0.354054,-0.669882
2756000000.0,0.343397,-0.673292
2760000000.0,0.311559,-0.68065
2764000000.0,0.313075,-0.670766
2768000000.0,0.27609,-0.683908
2772000000.0,0.277568,-0.678363
2776000000.0,0.253263,-0.676144
2780000000.0,0.220745,-0.677252
2784000000.0,0.191047,-0.667581
2788000000.0,0.173883,-0.669115
2792000000.0,0.144201,-0.657096
2796000000.0,0.143584,-0.641892
2800000000.0,0.110683,-0.623238
2804000000.0,0.078443,-0.620443
2808000000.0,0.07748,-0.61479
2812000000.0,0.060435,-0.596963
2816000000.0,0.030693,-0.571075
2820000000.0,0.035143,-0.550551
2824000000.0,0.021686,-0.54033
2828000000.0,0.018176,-0.521936
2832000000.0,0.014271,-0.511055
2836000000.0,0.014301,-0.484437
2840000000.0,0.031852,-0.472804
2844000000.0,0.025184,-0.452997
2848000000.0,0.016743,-0.451184
2852000000.0,0.039469,-0.432847
2856000000.0,0.048506,-0.414802
2860000000.0,0.045038,-0.41378
2864000000.0,0.06436,-0.40168
2868000000.0,0.07874,-0.397069
2872000000.0,0.091204,-0.394268
2876000000.0,0.098541,-0.39643
2880000000.0,0.103379,-0.3955
2884000000.0,0.116211,-0.393125
2888000000.0,0.131692,-0.395432
2892000000.0,0.14917,-0.398129
2896000000.0,0.151486,-0.405663
2900000000.0,0.148752,-0.417029
2904000000.0,0.156963,-0.419123
2908000000.0,0.163071,-0.426127
2912000000.0,0.170319,-0.432663
2916000000.0,0.163068,-0.443293
2920000000.0,0.18147,-0.44542
2924000000.0,0.173397,-0.45882
2928000000.0,0.1832,-0.465544
2932000000.0,0.176082,-0.482818
2936000000.0,0.176376,-0.488504
2940000000.0,0.181048,-0.494306
2944000000.0,0.182951,-0.507722
2948000000.0,0.178888,-0.512071
2952000000.0,0.167731,-0.526274
2956000000.0,0.170634,-0.540695
2960000000.0,0.166169,-0.544754
2964000000.0,0.161309,-0.552944
2968000000.0,0.157977,-0.564533
2972000000.0,0.172582,-0.569676
2976000000.0,0.137744,-0.579175
2980000000.0,0.134285,-0.590102
2984000000.0,0.110882,-0.604525
2988000000.0,0.111634,-0.607545
2992000000.0,0.096192,-0.61552
2996000000.0,0.099905,-0.618283
3000000000.0,0.078217,-0.627284
