Freq (Hz),Real Part,Imaginary Part
2200000000.0,0.609923,0.37063
2204000000.0,0.628549,0.327165
2208000000.0,0.65051,0.269624
2212000000.0,0.655574,0.248027
2216000000.0,0.674522,0.202359
2220000000.0,0.687712,0.169188
2224000000.0,0.69103,0.112538
2228000000.0,0.695124,0.084045
2232000000.0,0.691484,0.038807
2236000000.0,0.684529,0.008525
2240000000.0,0.685682,-0.044565
2244000000.0,0.6795,-0.077933
2248000000.0,0.661413,-0.128899
2252000000.0,0.642257,-0.166391
2256000000.0,0.618405,-0.213048
2260000000.0,0.588325,-0.242695
2264000000.0,0.555919,-0.297114
2268000000.0,0.535593,-0.313654
2272000000.0,0.498591,-0.34023
2276000000.0,0.459197,-0.363959
2280000000.0,0.443696,-0.362324
2284000000.0,0.383378,-0.392522
2288000000.0,0.339279,-0.400579
2292000000.0,0.298452,-0.40399
2296000000.0,0.261105,-0.402692
2300000000.0,0.226043,-0.395611
2304000000.0,0.203906,-0.370232
2308000000.0,0.191941,-0.355906
2312000000.0,0.181303,-0.331238
2316000000.0,0.17289,-0.305014
2320000000.0,0.166576,-0.282033
2324000000.0,0.167586,-0.257962
2328000000.0,0.170106,-0.237403
2332000000.0,0.171344,-0.214462
2336000000.0,0.173061,-0.199587
2340000000.0,0.178995,-0.185758
2344000000.0,0.185463,-0.16916
2348000000.0,0.194586,-0.157286
2352000000.0,0.203463,-0.148637
2356000000.0,0.216299,-0.137002
2360000000.0,0.223252,-0.132404
2364000000.0,0.234426,-0.125236
2368000000.0,0.244002,-0.125241
2372000000.0,0.255498,-0.12109
2376000000.0,0.262363,-0.120162
2380000000.0,0.269739,-0.124278
2384000000.0,0.278789,-0.124582
2388000000.0,0.281619,-0.131038
2392000000.0,0.290953,-0.132722
2396000000.0,0.289285,-0.14189
2400000000.0,0.293233,-0.148549
2404000000.0,0.290461,-0.154745
2408000000.0,0.287844,-0.167501
2412000000.0,0.285183,-0.169523
2416000000.0,0.284133,-0.176197
2420000000.0,0.274122,-0.179545
2424000000.0,0.263616,-0.188724
2428000000.0,0.252491,-0.188289
2432000000.0,0.242436,-0.19129
2436000000.0,0.234188,-0.18398
2440000000.0,0.220259,-0.184602
2444000000.0,0.210573,-0.179391
2448000000.0,0.202033,-0.172298
2452000000.0,0.188913,-0.166784
2456000000.0,0.179101,-0.155579
2460000000.0,0.172024,-0.144056
2464000000.0,0.168205,-0.128744
2468000000.0,0.160348,-0.116982
2472000000.0,0.160821,-0.104426
2476000000.0,0.16079,-0.082519
2480000000.0,0.162988,-0.068135
2484000000.0,0.165684,-0.052212
2488000000.0,0.170721,-0.042594
2492000000.0,0.175889,-0.026699
2496000000.0,0.183646,-0.012869
2500000000.0,0.19302,-0.001754
2504000000.0,0.202439,0.01092
2508000000.0,0.213418,0.022537
2512000000.0,0.227089,0.033712
2516000000.0,0.235908,0.042059
2520000000.0,0.247262,0.047831
2524000000.0,0.266397,0.056143
2528000000.0,0.275964,0.063229
2532000000.0,0.285629,0.078306
2536000000.0,0.3028,0.072477
2540000000.0,0.31968,0.075828
2544000000.0,0.335537,0.079326
2548000000.0,0.351258,0.079167
2552000000.0,0.365201,0.078355
2556000000.0,0.377055,0.084152
2560000000.0,0.395714,0.083406
2564000000.0,0.419585,0.077402
2568000000.0,0.435445,0.085977
2572000000.0,0.4557,0.068728
2576000000.0,0.474902,0.067017
2580000000.0,0.490191,0.071861
2584000000.0,0.51092,0.066078
2588000000.0,0.519131,0.045727
2592000000.0,0.545031,0.04422
2596000000.0,0.568515,0.037017
2600000000.0,0.583215,0.013512
2604000000.0,0.595276,-0.01389
2608000000.0,0.62409,-0.015521
2612000000.0,0.63788,-0.040027
2616000000.0,0.643166,-0.055635
2620000000.0,0.659106,-0.084969
2624000000.0,0.665372,-0.097272
2628000000.0,0.671963,-0.116961
2632000000.0,0.701208,-0.092373
2636000000.0,0.674847,-0.185391
2640000000.0,0.697724,-0.175344
2644000000.0,0.701515,-0.220896
2648000000.0,0.69092,-0.245132
2652000000.0,0.693258,-0.275098
2656000000.0,0.700701,-0.278512
2660000000.0,0.705956,-0.295332
2664000000.0,0.69113,-0.329254
2668000000.0,0.694259,-0.354805
2672000000.0,0.697621,-0.365541
2676000000.0,0.684747,-0.392994
2680000000.0,0.675389,-0.422436
2684000000.0,0.670706,-0.447718
2688000000.0,0.655033,-0.478608
2692000000.0,0.644427,-0.492438
2696000000.0,0.632467,-0.506164
2700000000.0,0.628754,-0.528754
2704000000.0,0.596906,-0.541691
2708000000.0,0.577977,-0.568758
2712000000.0,0.555925,-0.582098
2716000000.0,0.532504,-0.605874
2720000000.0,0.520848,-0.615654
2724000000.0,0.497345,-0.619885
2728000000.0,0.461103,-0.640427
2732000000.0,0.462961,-0.647915
2736000000.0,0.425006,-0.655425
2740000000.0,0.389322,-0.673162
2744000000.0,0.3956,-0.666718
2748000000.0,0.374513,-0.671616
2752000000.0,0.350153,-0.68331
2756000000.0,0.338018,-0.67463
2760000000.0,0.30552,-0.686323
2764000000.0,0.302713,-0.679358
2768000000.0,0.284417,-0.685223
2772000000.0,0.265579,-0.676704
2776000000.0,0.238633,-0.683098
2780000000.0,0.20617,-0.679335
2784000000.0,0.188174,-0.664061
2788000000.0,0.166261,-0.658392
2792000000.0,0.146546,-0.65537
2796000000.0,0.137607,-0.634854
2800000000.0,0.114392,-0.623499
2804000000.0,0.086177,-0.60777
2808000000.0,0.07457,-0.604658
2812000000.0,0.05444,-0.58221
2816000000.0,0.041277,-0.561869
2820000000.0,0.043334,-0.539661
2824000000.0,0.026411,-0.527765
2828000000.0,0.025449,-0.510175
2832000000.0,0.015897,-0.498372
2836000000.0,0.030849,-0.47497
2840000000.0,0.03848,-0.462048
2844000000.0,0.042769,-0.450824
2848000000.0,0.022683,-0.434496
2852000000.0,0.04748,-0.426405
2856000000.0,0.066473,-0.412066
2860000000.0,0.07061,-0.413412
2864000000.0,0.081996,-0.402611
2868000000.0,0.093039,-0.397993
2872000000.0,0.108116,-0.396661
2876000000.0,0.115283,-0.40069
2880000000.0,0.124074,-0.400308
2884000000.0,0.132148,-0.40228
2888000000.0,0.148542,-0.402496
2892000000.0,0.156166,-0.409996
2896000000.0,0.16116,-0.417441
2900000000.0,0.164049,-0.425377
2904000000.0,0.165418,-0.431715
2908000000.0,0.173272,-0.43866
2912000000.0,0.178492,-0.449049
2916000000.0,0.167096,-0.458678
2920000000.0,0.185268,-0.459366
2924000000.0,0.18476,-0.468314
2928000000.0,0.189782,-0.477866
2932000000.0,0.186432,-0.492429
2936000000.0,0.180642,-0.503222
2940000000.0,0.179988,-0.511535
2944000000.0,0.180826,-0.523137
2948000000.0,0.18367,-0.526534
2952000000.0,0.177023,-0.537483
2956000000.0,0.174202,-0.548081
2960000000.0,0.170053,-0.556949
2964000000.0,0.171356,-0.563097
2968000000.0,0.150967,-0.582497
2972000000.0,0.144034,-0.587851
2976000000.0,0.130645,-0.592854
2980000000.0,0.143686,-0.605946
2984000000.0,0.117215,-0.613324
2988000000.0,0.116254,-0.619255
2992000000.0,0.097922,-0.629022
2996000000.0,0.07721,-0.636808
3000000000.0,0.071272,-0.641281
