Frequency (Hz),Real Part,Imaginary Part
1600000000.0,-0.789439,0.517595
1607000000.0,-0.764654,0.555516
1614000000.0,-0.740736,0.591615
1621000000.0,-0.722641,0.615259
1628000000.0,-0.675846,0.661489
1635000000.0,-0.646946,0.685003
1642000000.0,-0.604973,0.719146
1649000000.0,-0.567904,0.743907
1656000000.0,-0.535465,0.765682
1663000000.0,-0.490836,0.793693
1670000000.0,-0.461407,0.811686
1677000000.0,-0.418462,0.834246
1684000000.0,-0.382998,0.850289
1691000000.0,-0.342471,0.868406
1698000000.0,-0.289363,0.88243
1705000000.0,-0.25327,0.895156
1712000000.0,-0.204092,0.903593
1719000000.0,-0.129846,0.914919
1726000000.0,-0.121494,0.917431
1733000000.0,-0.088026,0.918718
1740000000.0,-0.036206,0.92348
1747000000.0,0.004183,0.917146
1754000000.0,0.047703,0.914004
1761000000.0,0.091271,0.906837
1768000000.0,0.129898,0.902886
1775000000.0,0.176829,0.888949
1782000000.0,0.214874,0.879694
1789000000.0,0.264583,0.860185
1796000000.0,0.300055,0.844014
1803000000.0,0.334258,0.832821
1810000000.0,0.372096,0.814066
1817000000.0,0.416041,0.792494
1824000000.0,0.449218,0.77311
1831000000.0,0.486711,0.740566
1838000000.0,0.409039,0.78996
1845000000.0,0.549797,0.684739
1852000000.0,0.569467,0.65905
1859000000.0,0.591541,0.639072
1866000000.0,0.629057,0.594857
1873000000.0,0.657459,0.558186
1880000000.0,0.689629,0.522013
1887000000.0,0.710753,0.48295
1894000000.0,0.735374,0.443221
1901000000.0,0.753541,0.403723
1908000000.0,0.766432,0.355452
1915000000.0,0.777635,0.317001
1922000000.0,0.785805,0.27517
1929000000.0,0.796627,0.231028
1936000000.0,0.80128,0.191057
1943000000.0,0.801919,0.142917
1950000000.0,0.797998,0.100486
1957000000.0,0.796321,0.05693
1964000000.0,0.781945,0.010102
1971000000.0,0.768689,-0.03138
1978000000.0,0.750634,-0.071997
1985000000.0,0.732018,-0.116914
1992000000.0,0.710177,-0.150648
1999000000.0,0.68279,-0.178118
2006000000.0,0.657225,-0.203354
2013000000.0,0.628142,-0.222527
2020000000.0,0.595421,-0.243451
2027000000.0,0.571241,-0.250575
2034000000.0,0.54463,-0.259588
2041000000.0,0.519905,-0.261402
2048000000.0,0.500235,-0.266695
2055000000.0,0.491088,-0.260232
2062000000.0,0.477114,-0.268412
2069000000.0,0.475584,-0.264339
2076000000.0,0.471869,-0.269804
2083000000.0,0.471495,-0.277749
2090000000.0,0.476066,-0.286937
2097000000.0,0.480261,-0.304819
2104000000.0,0.480726,-0.32677
2111000000.0,0.481741,-0.352249
2118000000.0,0.476307,-0.38139
2125000000.0,0.464917,-0.417407
2132000000.0,0.452993,-0.443598
2139000000.0,0.406853,-0.490425
2146000000.0,0.399184,-0.503855
2153000000.0,0.366958,-0.529003
2160000000.0,0.32458,-0.552569
2167000000.0,0.28287,-0.566105
2174000000.0,0.240564,-0.577301
2181000000.0,0.184892,-0.581694
2188000000.0,0.144759,-0.579547
2195000000.0,0.108194,-0.568083
2202000000.0,0.070088,-0.550138
2209000000.0,0.043717,-0.528641
2216000000.0,0.015263,-0.502232
2223000000.0,-0.007158,-0.473551
2230000000.0,-0.016954,-0.445503
2237000000.0,-0.023113,-0.417885
2244000000.0,-0.024347,-0.388784
2251000000.0,-0.02007,-0.364181
2258000000.0,-0.009705,-0.340047
2265000000.0,0.00966,-0.321782
2272000000.0,0.028046,-0.30814
2279000000.0,0.049039,-0.300764
2286000000.0,0.072096,-0.305295
2293000000.0,0.091991,-0.317162
2300000000.0,0.106178,-0.338312
2307000000.0,0.117863,-0.362605
2314000000.0,0.128068,-0.392864
2321000000.0,0.139061,-0.428844
2328000000.0,0.136601,-0.458559
2335000000.0,0.194804,-0.479522
2342000000.0,0.108496,-0.535939
2349000000.0,0.087755,-0.577635
2356000000.0,0.061239,-0.603457
2363000000.0,0.034957,-0.637251
2370000000.0,-0.018777,-0.658429
2377000000.0,-0.031224,-0.688724
2384000000.0,-0.112048,-0.703146
2391000000.0,-0.159685,-0.708521
2398000000.0,-0.217049,-0.714493
2405000000.0,-0.27975,-0.711599
2412000000.0,-0.332616,-0.70955
2419000000.0,-0.376895,-0.698101
2426000000.0,-0.440352,-0.672389
2433000000.0,-0.48827,-0.651497
2440000000.0,-0.535862,-0.624436
2447000000.0,-0.577425,-0.592003
2454000000.0,-0.622571,-0.54884
2461000000.0,-0.652584,-0.513859
2468000000.0,-0.685818,-0.47007
2475000000.0,-0.71424,-0.434666
2482000000.0,-0.738373,-0.389137
2489000000.0,-0.757628,-0.338644
2496000000.0,-0.77833,-0.290581
2503000000.0,-0.787787,-0.258006
2510000000.0,-0.800924,-0.21019
2517000000.0,-0.809867,-0.073453
2524000000.0,-0.804923,-0.115784
2531000000.0,-0.809736,-0.070373
2538000000.0,-0.807601,-0.020392
2545000000.0,-0.807693,0.026719
2552000000.0,-0.798029,0.069347
2559000000.0,-0.786585,0.110306
2566000000.0,-0.775786,0.159391
2573000000.0,-0.761194,0.200955
2580000000.0,-0.738567,0.245732
2587000000.0,-0.717542,0.292459
2594000000.0,-0.691564,0.325873
2601000000.0,-0.671477,0.350998
2608000000.0,-0.634439,0.387963
2615000000.0,-0.596465,0.420336
2622000000.0,-0.55979,0.447177
2629000000.0,-0.511571,0.473467
2636000000.0,-0.501321,0.468845
2643000000.0,-0.43415,0.495337
2650000000.0,-0.387593,0.507853
2657000000.0,-0.355192,0.506885
2664000000.0,-0.325716,0.50078
2671000000.0,-0.288073,0.499843
2678000000.0,-0.257189,0.492252
2685000000.0,-0.183049,0.49314
2692000000.0,-0.219591,0.458479
2699000000.0,-0.211379,0.443328
2706000000.0,-0.194117,0.437918
2713000000.0,-0.191155,0.42593
2720000000.0,-0.18681,0.415225
2727000000.0,-0.193166,0.409782
2734000000.0,-0.19828,0.406709
2741000000.0,-0.200488,0.411
2748000000.0,-0.199424,0.412072
2755000000.0,-0.201493,0.422773
2762000000.0,-0.200286,0.429547
2769000000.0,-0.1905,0.44571
2776000000.0,-0.243793,0.438984
2783000000.0,-0.165349,0.479674
2790000000.0,-0.156142,0.501492
2797000000.0,-0.14494,0.523406
2804000000.0,-0.156782,0.535072
2811000000.0,-0.099323,0.562846
2818000000.0,-0.077126,0.587515
2825000000.0,-0.051722,0.595269
2832000000.0,-0.01904,0.607199
2839000000.0,0.011053,0.619099
2846000000.0,0.029916,0.620773
2853000000.0,0.059942,0.624847
2860000000.0,0.100001,0.624204
2867000000.0,0.118999,0.616283
2874000000.0,0.159874,0.599774
2881000000.0,0.193802,0.597276
2888000000.0,0.222168,0.589051
2895000000.0,0.251732,0.575871
2902000000.0,0.335227,0.521747
2909000000.0,0.297917,0.546695
2916000000.0,0.325465,0.528386
2923000000.0,0.356054,0.507447
2930000000.0,0.375476,0.490287
2937000000.0,0.391352,0.476302
2944000000.0,0.406282,0.457854
2951000000.0,0.425032,0.441777
2958000000.0,0.445002,0.409848
2965000000.0,0.454278,0.392702
2972000000.0,0.469923,0.377271
2979000000.0,0.485121,0.348135
2986000000.0,0.492206,0.330609
2993000000.0,0.514093,0.302528
3000000000.0,0.523478,0.278812
