Frequency (Hz),Real Part,Imaginary Part
1600000000.0,-0.780456,0.527445
1607000000.0,-0.759628,0.560158
1614000000.0,-0.746926,0.579144
1621000000.0,-0.701456,0.626035
1628000000.0,-0.67142,0.659136
1635000000.0,-0.637286,0.69162
1642000000.0,-0.59972,0.720072
1649000000.0,-0.567781,0.743043
1656000000.0,-0.525938,0.769491
1663000000.0,-0.486227,0.793863
1670000000.0,-0.449622,0.815516
1677000000.0,-0.410159,0.83482
1684000000.0,-0.3776,0.85227
1691000000.0,-0.325383,0.868098
1698000000.0,-0.283136,0.884049
1705000000.0,-0.244218,0.894353
1712000000.0,-0.19584,0.901465
1719000000.0,-0.159534,0.913791
1726000000.0,-0.112311,0.916492
1733000000.0,-0.066776,0.917767
1740000000.0,-0.029574,0.921116
1747000000.0,0.017072,0.91576
1754000000.0,0.07717,0.905689
1761000000.0,0.103018,0.900286
1768000000.0,0.148571,0.888027
1775000000.0,0.188872,0.881009
1782000000.0,0.229016,0.869283
1789000000.0,0.269551,0.855731
1796000000.0,0.309318,0.838024
1803000000.0,0.360333,0.811197
1810000000.0,0.390229,0.796545
1817000000.0,0.423256,0.778175
1824000000.0,0.458355,0.760501
1831000000.0,0.506131,0.722113
1838000000.0,0.526399,0.700281
1845000000.0,0.560491,0.656521
1852000000.0,0.584971,0.634698
1859000000.0,0.610656,0.596573
1866000000.0,0.639666,0.561926
1873000000.0,0.663746,0.527891
1880000000.0,0.689668,0.487433
1887000000.0,0.712481,0.445485
1894000000.0,0.728297,0.4022
1901000000.0,0.695814,0.454704
1908000000.0,0.749659,0.309888
1915000000.0,0.757279,0.274665
1922000000.0,0.756703,0.228678
1929000000.0,0.761212,0.179244
1936000000.0,0.75585,0.142265
1943000000.0,0.751718,0.098918
1950000000.0,0.742306,0.057163
1957000000.0,0.726335,0.022194
1964000000.0,0.705989,-0.019023
1971000000.0,0.681621,-0.042146
1978000000.0,0.66029,-0.071423
1985000000.0,0.636206,-0.100272
1992000000.0,0.614485,-0.112849
1999000000.0,0.591204,-0.129144
2006000000.0,0.571698,-0.133004
2013000000.0,0.554061,-0.142981
2020000000.0,0.537945,-0.144096
2027000000.0,0.529403,-0.146226
2034000000.0,0.525826,-0.140573
2041000000.0,0.52344,-0.145469
2048000000.0,0.541284,-0.111534
2055000000.0,0.53292,-0.162563
2062000000.0,0.542344,-0.177109
2069000000.0,0.550308,-0.194393
2076000000.0,0.555331,-0.22308
2083000000.0,0.560529,-0.247867
2090000000.0,0.561965,-0.284717
2097000000.0,0.560064,-0.315117
2104000000.0,0.547462,-0.358259
2111000000.0,0.536199,-0.386932
2118000000.0,0.512577,-0.427991
2125000000.0,0.48238,-0.467227
2132000000.0,0.471886,-0.478601
2139000000.0,0.411954,-0.518364
2146000000.0,0.376081,-0.531902
2153000000.0,0.329513,-0.550937
2160000000.0,0.281613,-0.556865
2167000000.0,0.234689,-0.558891
2174000000.0,0.187549,-0.55557
2181000000.0,0.149028,-0.540116
2188000000.0,0.1138,-0.523066
2195000000.0,0.086971,-0.497235
2202000000.0,0.068043,-0.470416
2209000000.0,0.048465,-0.44158
2216000000.0,0.041429,-0.413462
2223000000.0,0.046978,-0.384532
2230000000.0,0.052622,-0.363278
2237000000.0,0.064067,-0.344678
2244000000.0,0.060407,-0.333301
2251000000.0,0.099839,-0.323431
2258000000.0,0.116647,-0.324174
2265000000.0,0.136113,-0.329464
2272000000.0,0.156667,-0.337674
2279000000.0,0.166683,-0.353299
2286000000.0,0.174795,-0.378502
2293000000.0,0.183331,-0.407367
2300000000.0,0.182083,-0.440336
2307000000.0,0.178923,-0.477309
2314000000.0,0.168578,-0.509262
2321000000.0,0.159698,-0.543643
2328000000.0,0.139852,-0.575187
2335000000.0,0.046875,-0.618509
2342000000.0,0.082445,-0.646815
2349000000.0,0.051531,-0.67907
2356000000.0,0.006658,-0.700531
2363000000.0,-0.041167,-0.721052
2370000000.0,-0.088823,-0.732418
2377000000.0,-0.143298,-0.743619
2384000000.0,-0.190879,-0.744868
2391000000.0,-0.25668,-0.743121
2398000000.0,-0.306428,-0.734427
2405000000.0,-0.358042,-0.721876
2412000000.0,-0.411843,-0.712809
2419000000.0,-0.443957,-0.699749
2426000000.0,-0.505698,-0.652965
2433000000.0,-0.559386,-0.620943
2440000000.0,-0.59767,-0.590409
2447000000.0,-0.635979,-0.546121
2454000000.0,-0.66694,-0.510981
2461000000.0,-0.694526,-0.47625
2468000000.0,-0.722125,-0.42953
2475000000.0,-0.744034,-0.385439
2482000000.0,-0.766191,-0.334517
2489000000.0,-0.773909,-0.29329
2496000000.0,-0.789859,-0.241716
2503000000.0,-0.796357,-0.21437
2510000000.0,-0.803698,-0.179791
2517000000.0,-0.808591,-0.110401
2524000000.0,-0.80495,-0.072635
2531000000.0,-0.799545,-0.023872
2538000000.0,-0.798281,0.022751
2545000000.0,-0.786639,0.060143
2552000000.0,-0.785474,0.079077
2559000000.0,-0.763287,0.14935
2566000000.0,-0.746985,0.194651
2573000000.0,-0.722906,0.243066
2580000000.0,-0.698016,0.278547
2587000000.0,-0.67094,0.318845
2594000000.0,-0.650805,0.34048
2601000000.0,-0.613608,0.36741
2608000000.0,-0.574565,0.395985
2615000000.0,-0.534938,0.415773
2622000000.0,-0.489926,0.435082
2629000000.0,-0.450586,0.442521
2636000000.0,-0.420744,0.444497
2643000000.0,-0.378778,0.447072
2650000000.0,-0.357032,0.442353
2657000000.0,-0.323139,0.433235
2664000000.0,-0.300911,0.426654
2671000000.0,-0.285408,0.420436
2678000000.0,-0.274198,0.406558
2685000000.0,-0.262954,0.399843
2692000000.0,-0.259179,0.395814
2699000000.0,-0.263763,0.386364
2706000000.0,-0.260125,0.388222
2713000000.0,-0.266647,0.386885
2720000000.0,-0.267203,0.392803
2727000000.0,-0.268965,0.40461
2734000000.0,-0.265157,0.415149
2741000000.0,-0.271736,0.42809
2748000000.0,-0.265489,0.442289
2755000000.0,-0.265723,0.459636
2762000000.0,-0.257205,0.478088
2769000000.0,-0.242221,0.501169
2776000000.0,-0.223202,0.521717
2783000000.0,-0.192023,0.542755
2790000000.0,-0.16984,0.560483
2797000000.0,-0.143367,0.586081
2804000000.0,-0.119682,0.605528
2811000000.0,-0.084819,0.623231
2818000000.0,-0.060981,0.635196
2825000000.0,-0.025231,0.645037
2832000000.0,-0.004064,0.650583
2839000000.0,0.031365,0.653959
2846000000.0,0.063765,0.648724
2853000000.0,0.092702,0.646687
2860000000.0,0.129641,0.642831
2867000000.0,0.166616,0.629887
2874000000.0,0.198165,0.611838
2881000000.0,0.221057,0.607093
2888000000.0,0.251938,0.590316
2895000000.0,0.280891,0.574846
2902000000.0,0.295838,0.56797
2909000000.0,0.332833,0.545723
2916000000.0,0.348833,0.527039
2923000000.0,0.373533,0.507668
2930000000.0,0.392445,0.488628
2937000000.0,0.415351,0.466337
2944000000.0,0.428893,0.450937
2951000000.0,0.456045,0.418668
2958000000.0,0.459719,0.411335
2965000000.0,0.477311,0.380026
2972000000.0,0.489461,0.362276
2979000000.0,0.503598,0.338145
2986000000.0,0.511708,0.321427
2993000000.0,0.526284,0.29042
3000000000.0,0.533556,0.271841
