Frequency (Hz),Real Part,Imaginary Part
1600000000.0,-0.782148,0.526326
1607000000.0,-0.76614,0.557126
1614000000.0,-0.731003,0.597115
1621000000.0,-0.704036,0.630387
1628000000.0,-0.671585,0.659301
1635000000.0,-0.642998,0.688884
1642000000.0,-0.703541,0.631654
1649000000.0,-0.566963,0.748575
1656000000.0,-0.520377,0.774641
1663000000.0,-0.489316,0.793084
1670000000.0,-0.454525,0.817163
1677000000.0,-0.415059,0.834655
1684000000.0,-0.378868,0.848498
1691000000.0,-0.337441,0.866747
1698000000.0,-0.296415,0.882197
1705000000.0,-0.245475,0.898106
1712000000.0,-0.201442,0.90524
1719000000.0,-0.154987,0.912969
1726000000.0,-0.117903,0.914135
1733000000.0,-0.074726,0.919227
1740000000.0,-0.037039,0.919329
1747000000.0,0.011604,0.915473
1754000000.0,0.050451,0.915307
1761000000.0,0.097369,0.90652
1768000000.0,0.139661,0.89646
1775000000.0,0.182986,0.885106
1782000000.0,0.229113,0.877168
1789000000.0,0.267477,0.859212
1796000000.0,0.307485,0.840707
1803000000.0,0.340311,0.829026
1810000000.0,0.377284,0.804998
1817000000.0,0.422852,0.782178
1824000000.0,0.454898,0.767777
1831000000.0,0.494765,0.733586
1838000000.0,0.524142,0.70351
1845000000.0,0.547208,0.674799
1852000000.0,0.52372,0.700527
1859000000.0,0.587165,0.63679
1866000000.0,0.638629,0.577207
1873000000.0,0.661396,0.541664
1880000000.0,0.6872,0.50479
1887000000.0,0.714351,0.454614
1894000000.0,0.729731,0.422837
1901000000.0,0.751947,0.374723
1908000000.0,0.759698,0.324345
1915000000.0,0.765747,0.288605
1922000000.0,0.771458,0.2494
1929000000.0,0.773919,0.200731
1936000000.0,0.777308,0.155481
1943000000.0,0.773515,0.118475
1950000000.0,0.766532,0.061603
1957000000.0,0.755949,0.029433
1964000000.0,0.737356,-0.013033
1971000000.0,0.714268,-0.053632
1978000000.0,0.691041,-0.081101
1985000000.0,0.667821,-0.109457
1992000000.0,0.642678,-0.137871
1999000000.0,0.614068,-0.153153
2006000000.0,0.589963,-0.166363
2013000000.0,0.566139,-0.177123
2020000000.0,0.544677,-0.178447
2027000000.0,0.530653,-0.180315
2034000000.0,0.520168,-0.173975
2041000000.0,0.510635,-0.17496
2048000000.0,0.509905,-0.173523
2055000000.0,0.513375,-0.180874
2062000000.0,0.517982,-0.191229
2069000000.0,0.527115,-0.19993
2076000000.0,0.531304,-0.220029
2083000000.0,0.543232,-0.239068
2090000000.0,0.547196,-0.267942
2097000000.0,0.547701,-0.299736
2104000000.0,0.545732,-0.335903
2111000000.0,0.535016,-0.376232
2118000000.0,0.52529,-0.408249
2125000000.0,0.503999,-0.446758
2132000000.0,0.471963,-0.488467
2139000000.0,0.4421,-0.515848
2146000000.0,0.402832,-0.541744
2153000000.0,0.357646,-0.56477
2160000000.0,0.306669,-0.580293
2167000000.0,0.258872,-0.590067
2174000000.0,0.216694,-0.590964
2181000000.0,0.170672,-0.583891
2188000000.0,0.12383,-0.572254
2195000000.0,0.083226,-0.552587
2202000000.0,0.052641,-0.527444
2209000000.0,0.033741,-0.497781
2216000000.0,0.008973,-0.47081
2223000000.0,0.001032,-0.438626
2230000000.0,-0.004347,-0.408542
2237000000.0,-0.001557,-0.381865
2244000000.0,0.009129,-0.354233
2251000000.0,0.021623,-0.335667
2258000000.0,0.043153,-0.318295
2265000000.0,0.061667,-0.308926
2272000000.0,0.085907,-0.307363
2279000000.0,0.109075,-0.310196
2286000000.0,0.132003,-0.325509
2293000000.0,0.140654,-0.351969
2300000000.0,0.153357,-0.381934
2307000000.0,0.15487,-0.417619
2314000000.0,0.155178,-0.450951
2321000000.0,0.156074,-0.485242
2328000000.0,0.140964,-0.516049
2335000000.0,0.117513,-0.553947
2342000000.0,0.103569,-0.588467
2349000000.0,0.072366,-0.620073
2356000000.0,0.036997,-0.648077
2363000000.0,-0.00168,-0.673873
2370000000.0,-0.045618,-0.697052
2377000000.0,-0.085438,-0.712289
2384000000.0,-0.14593,-0.723895
2391000000.0,-0.197586,-0.731542
2398000000.0,-0.261587,-0.72086
2405000000.0,-0.311228,-0.717174
2412000000.0,-0.363474,-0.715388
2419000000.0,-0.417638,-0.697309
2426000000.0,-0.462767,-0.673427
2433000000.0,-0.5116,-0.649217
2440000000.0,-0.560168,-0.617356
2447000000.0,-0.606062,-0.579606
2454000000.0,-0.637252,-0.548027
2461000000.0,-0.668803,-0.509752
2468000000.0,-0.706044,-0.462519
2475000000.0,-0.726933,-0.424715
2482000000.0,-0.748352,-0.38618
2489000000.0,-0.769764,-0.331342
2496000000.0,-0.786863,-0.283654
2503000000.0,-0.799745,-0.245134
2510000000.0,-0.811024,-0.16259
2517000000.0,-0.816427,-0.156074
2524000000.0,-0.817643,-0.105445
2531000000.0,-0.817007,-0.067224
2538000000.0,-0.814775,-0.010757
2545000000.0,-0.811838,0.037892
2552000000.0,-0.802557,0.076442
2559000000.0,-0.783055,0.156105
2566000000.0,-0.782986,0.164421
2573000000.0,-0.765409,0.203668
2580000000.0,-0.744769,0.251436
2587000000.0,-0.725365,0.291575
2594000000.0,-0.69981,0.324397
2601000000.0,-0.673853,0.365751
2608000000.0,-0.646616,0.396096
2615000000.0,-0.607448,0.433657
2622000000.0,-0.565443,0.468923
2629000000.0,-0.531415,0.475955
2636000000.0,-0.476879,0.502469
2643000000.0,-0.437838,0.515467
2650000000.0,-0.389502,0.526598
2657000000.0,-0.352603,0.526659
2664000000.0,-0.317756,0.524664
2671000000.0,-0.287364,0.515537
2678000000.0,-0.251909,0.506921
2685000000.0,-0.23496,0.491616
2692000000.0,-0.19955,0.477802
2699000000.0,-0.180256,0.461886
2706000000.0,-0.17631,0.443346
2713000000.0,-0.185579,0.43335
2720000000.0,-0.160392,0.423287
2727000000.0,-0.176932,0.410979
2734000000.0,-0.181007,0.406716
2741000000.0,-0.180982,0.408089
2748000000.0,-0.18465,0.409071
2755000000.0,-0.192835,0.414288
2762000000.0,-0.187745,0.422449
2769000000.0,-0.186402,0.437372
2776000000.0,-0.181238,0.454832
2783000000.0,-0.172093,0.4683
2790000000.0,-0.154709,0.489113
2797000000.0,-0.144304,0.513746
2804000000.0,-0.123811,0.540162
2811000000.0,-0.100484,0.559792
2818000000.0,-0.084642,0.583662
2825000000.0,-0.059908,0.597695
2832000000.0,-0.02734,0.610346
2839000000.0,0.006849,0.616325
2846000000.0,0.025156,0.62327
2853000000.0,0.054914,0.626788
2860000000.0,0.088714,0.624856
2867000000.0,0.128922,0.618129
2874000000.0,0.16701,0.612857
2881000000.0,0.193763,0.599122
2888000000.0,0.220238,0.597863
2895000000.0,0.25802,0.577085
2902000000.0,0.278716,0.566173
2909000000.0,0.305989,0.549513
2916000000.0,0.329773,0.530812
2923000000.0,0.351311,0.521321
2930000000.0,0.371474,0.498576
2937000000.0,0.398246,0.476658
2944000000.0,0.41935,0.457915
2951000000.0,0.428597,0.443838
2958000000.0,0.451331,0.419502
2965000000.0,0.465542,0.393659
2972000000.0,0.475707,0.377647
2979000000.0,0.489257,0.352915
2986000000.0,0.506434,0.332175
2993000000.0,0.517771,0.299386
3000000000.0,0.530494,0.275729
