Frequency (Hz),Real Part,Imaginary Part
1600000000.0,-0.78987,0.515832
1607000000.0,-0.769192,0.549046
1614000000.0,-0.746104,0.58313
1621000000.0,-0.709955,0.613589
1628000000.0,-0.683963,0.647623
1635000000.0,-0.649311,0.678382
1642000000.0,-0.620438,0.706635
1649000000.0,-0.578989,0.737665
1656000000.0,-0.537169,0.761264
1663000000.0,-0.507849,0.785525
1670000000.0,-0.469135,0.809942
1677000000.0,-0.427157,0.83542
1684000000.0,-0.390615,0.844631
1691000000.0,-0.348584,0.868795
1698000000.0,-0.304407,0.883725
1705000000.0,-0.266612,0.897259
1712000000.0,-0.214091,0.90917
1719000000.0,-0.169824,0.914855
1726000000.0,-0.135699,0.921449
1733000000.0,-0.090067,0.924801
1740000000.0,-0.050789,0.929295
1747000000.0,-0.007127,0.926435
1754000000.0,0.034391,0.921705
1761000000.0,0.086912,0.912386
1768000000.0,0.123294,0.906147
1775000000.0,0.165399,0.899944
1782000000.0,0.208226,0.884341
1789000000.0,0.249778,0.871448
1796000000.0,0.290399,0.857844
1803000000.0,0.332329,0.838544
1810000000.0,0.372787,0.823242
1817000000.0,0.412523,0.800368
1824000000.0,0.446443,0.791769
1831000000.0,0.475927,0.762259
1838000000.0,0.529783,0.716135
1845000000.0,0.545442,0.705424
1852000000.0,0.571432,0.670951
1859000000.0,0.598697,0.641729
1866000000.0,0.616011,0.627258
1873000000.0,0.645055,0.592135
1880000000.0,0.677991,0.550737
1887000000.0,0.702557,0.516023
1894000000.0,0.724056,0.484828
1901000000.0,0.743525,0.447707
1908000000.0,0.759092,0.398626
1915000000.0,0.776587,0.361696
1922000000.0,0.78632,0.319117
1929000000.0,0.802331,0.280859
1936000000.0,0.809805,0.23215
1943000000.0,0.8189,0.183374
1950000000.0,0.824984,0.14741
1957000000.0,0.825683,0.096006
1964000000.0,0.823566,0.054422
1971000000.0,0.816513,0.015231
1978000000.0,0.808888,-0.029403
1985000000.0,0.798278,-0.070161
1992000000.0,0.787807,-0.118368
1999000000.0,0.770062,-0.159014
2006000000.0,0.751922,-0.19375
2013000000.0,0.730322,-0.231926
2020000000.0,0.70205,-0.263899
2027000000.0,0.67741,-0.293738
2034000000.0,0.650089,-0.318234
2041000000.0,0.616722,-0.342616
2048000000.0,0.58702,-0.365517
2055000000.0,0.554012,-0.383654
2062000000.0,0.524642,-0.399979
2069000000.0,0.500871,-0.403907
2076000000.0,0.467963,-0.414496
2083000000.0,0.445173,-0.4187
2090000000.0,0.420677,-0.418746
2097000000.0,0.399665,-0.419162
2104000000.0,0.385555,-0.419255
2111000000.0,0.373415,-0.418239
2118000000.0,0.361429,-0.422158
2125000000.0,0.354564,-0.426804
2132000000.0,0.349816,-0.43181
2139000000.0,0.33883,-0.443588
2146000000.0,0.327935,-0.455905
2153000000.0,0.3141,-0.474277
2160000000.0,0.300458,-0.487257
2167000000.0,0.279314,-0.509479
2174000000.0,0.254445,-0.526177
2181000000.0,0.223869,-0.540915
2188000000.0,0.198317,-0.554706
2195000000.0,0.16353,-0.56012
2202000000.0,0.132139,-0.562196
2209000000.0,0.106224,-0.558701
2216000000.0,0.076388,-0.554323
2223000000.0,0.039525,-0.548265
2230000000.0,0.010189,-0.534255
2237000000.0,-0.010448,-0.518246
2244000000.0,-0.02987,-0.499991
2251000000.0,-0.047662,-0.480585
2258000000.0,-0.060329,-0.455884
2265000000.0,-0.064369,-0.432113
2272000000.0,-0.073382,-0.412093
2279000000.0,-0.071592,-0.393294
2286000000.0,-0.068067,-0.380732
2293000000.0,-0.06866,-0.368639
2300000000.0,-0.061205,-0.364435
2307000000.0,-0.05464,-0.35943
2314000000.0,-0.053697,-0.358954
2321000000.0,-0.039232,-0.367062
2328000000.0,-0.02749,-0.371216
2335000000.0,-0.023833,-0.388862
2342000000.0,-0.021032,-0.402853
2349000000.0,-0.022475,-0.421688
2356000000.0,-0.023079,-0.442621
2363000000.0,-0.032266,-0.464518
2370000000.0,-0.040901,-0.487852
2377000000.0,-0.053594,-0.516142
2384000000.0,-0.085192,-0.54419
2391000000.0,-0.120033,-0.57116
2398000000.0,-0.161112,-0.589457
2405000000.0,-0.208998,-0.607305
2412000000.0,-0.26331,-0.615424
2419000000.0,-0.312739,-0.618386
2426000000.0,-0.368361,-0.606001
2433000000.0,-0.42108,-0.589648
2440000000.0,-0.46827,-0.574295
2447000000.0,-0.519299,-0.545781
2454000000.0,-0.558862,-0.511461
2461000000.0,-0.60178,-0.476333
2468000000.0,-0.632492,-0.441338
2475000000.0,-0.663637,-0.398802
2482000000.0,-0.689709,-0.352259
2489000000.0,-0.710188,-0.307159
2496000000.0,-0.726888,-0.260001
2503000000.0,-0.739779,-0.219813
2510000000.0,-0.750478,-0.170311
2517000000.0,-0.75545,-0.128331
2524000000.0,-0.755071,-0.063958
2531000000.0,-0.758214,-0.022768
2538000000.0,-0.747124,0.027536
2545000000.0,-0.734464,0.075489
2552000000.0,-0.721439,0.11943
2559000000.0,-0.69646,0.166488
2566000000.0,-0.675328,0.200562
2573000000.0,-0.649727,0.244463
2580000000.0,-0.608021,0.286299
2587000000.0,-0.577529,0.302962
2594000000.0,-0.538702,0.328594
2601000000.0,-0.498839,0.346183
2608000000.0,-0.481085,0.33022
2615000000.0,-0.376677,0.400726
2622000000.0,-0.393222,0.348971
2629000000.0,-0.361764,0.346548
2636000000.0,-0.338417,0.335456
2643000000.0,-0.319243,0.326748
2650000000.0,-0.312421,0.317418
2657000000.0,-0.299762,0.306909
2664000000.0,-0.30201,0.296478
2671000000.0,-0.293068,0.292124
2678000000.0,-0.299162,0.290326
2685000000.0,-0.302663,0.290127
2692000000.0,-0.303464,0.297163
2699000000.0,-0.31001,0.300963
2706000000.0,-0.316232,0.311392
2713000000.0,-0.326404,0.319943
2720000000.0,-0.330574,0.335008
2727000000.0,-0.337327,0.350976
2734000000.0,-0.337499,0.369661
2741000000.0,-0.33658,0.395519
2748000000.0,-0.332134,0.408294
2755000000.0,-0.324894,0.437026
2762000000.0,-0.307802,0.459031
2769000000.0,-0.293708,0.484531
2776000000.0,-0.268778,0.508426
2783000000.0,-0.242485,0.53696
2790000000.0,-0.210417,0.556279
2797000000.0,-0.188412,0.576521
2804000000.0,-0.151931,0.599817
2811000000.0,-0.116593,0.621816
2818000000.0,-0.089336,0.628958
2825000000.0,-0.071207,0.643958
2832000000.0,-0.031303,0.648962
2839000000.0,0.006669,0.649951
2846000000.0,0.031728,0.649428
2853000000.0,0.070057,0.650695
2860000000.0,0.101498,0.641073
2867000000.0,0.134979,0.628458
2874000000.0,0.16569,0.623467
2881000000.0,0.204188,0.604998
2888000000.0,0.236238,0.591487
2895000000.0,0.253006,0.579913
2902000000.0,0.270797,0.567987
2909000000.0,0.298,0.547693
2916000000.0,0.32504,0.52785
2923000000.0,0.348546,0.512782
2930000000.0,0.370528,0.48978
2937000000.0,0.384258,0.478107
2944000000.0,0.402367,0.456185
2951000000.0,0.421492,0.435396
2958000000.0,0.434657,0.4166
2965000000.0,0.447332,0.400757
2972000000.0,0.462038,0.375776
2979000000.0,0.473401,0.359277
2986000000.0,0.4953,0.32738
2993000000.0,0.501222,0.304498
3000000000.0,0.512393,0.279825
