Freq (Hz),Real Part,Imaginary Part
2200000000.0,0.518351,0.601085
2204000000.0,0.561467,0.561519
2208000000.0,0.585459,0.542791
2212000000.0,0.601162,0.513406
2216000000.0,0.636984,0.493555
2220000000.0,0.66871,0.463536
2224000000.0,0.692938,0.431437
2228000000.0,0.711816,0.400431
2232000000.0,0.731458,0.367407
2236000000.0,0.750142,0.328156
2240000000.0,0.780115,0.296602
2244000000.0,0.792723,0.274965
2248000000.0,0.811064,0.223655
2252000000.0,0.819597,0.178333
2256000000.0,0.829567,0.144767
2260000000.0,0.840684,0.115666
2264000000.0,0.855072,0.070594
2268000000.0,0.869635,0.011224
2272000000.0,0.875871,0.007989
2276000000.0,0.876556,-0.056862
2280000000.0,0.87775,-0.106167
2284000000.0,0.881781,-0.164058
2288000000.0,0.874701,-0.198287
2292000000.0,0.87411,-0.246849
2296000000.0,0.868684,-0.265955
2300000000.0,0.855134,-0.333672
2304000000.0,0.844053,-0.339864
2308000000.0,0.857137,-0.354311
2312000000.0,0.848244,-0.387213
2316000000.0,0.83682,-0.409853
2320000000.0,0.835445,-0.406497
2324000000.0,0.826769,-0.413624
2328000000.0,0.819989,-0.440751
2332000000.0,0.807328,-0.439338
2336000000.0,0.789582,-0.479415
2340000000.0,0.80012,-0.481799
2344000000.0,0.781026,-0.493059
2348000000.0,0.771682,-0.515
2352000000.0,0.751651,-0.533949
2356000000.0,0.757327,-0.531381
2360000000.0,0.740326,-0.547078
2364000000.0,0.71502,-0.569885
2368000000.0,0.712467,-0.573249
2372000000.0,0.708377,-0.576942
2376000000.0,0.690671,-0.590534
2380000000.0,0.66496,-0.615448
2384000000.0,0.665645,-0.610383
2388000000.0,0.641501,-0.617091
2392000000.0,0.641885,-0.62896
2396000000.0,0.628083,-0.634382
2400000000.0,0.597452,-0.659772
2404000000.0,0.588614,-0.652073
2408000000.0,0.582222,-0.672424
2412000000.0,0.556649,-0.66805
2416000000.0,0.549758,-0.67651
2420000000.0,0.539474,-0.67832
2424000000.0,0.508335,-0.707343
2428000000.0,0.482347,-0.70554
2432000000.0,0.469527,-0.722828
2436000000.0,0.482389,-0.70629
2440000000.0,0.452029,-0.714429
2444000000.0,0.439779,-0.724022
2448000000.0,0.432418,-0.741098
2452000000.0,0.416296,-0.735312
2456000000.0,0.407344,-0.743192
2460000000.0,0.375549,-0.761478
2464000000.0,0.36585,-0.770268
2468000000.0,0.341358,-0.774895
2472000000.0,0.333044,-0.789353
2476000000.0,0.319238,-0.78731
2480000000.0,0.295921,-0.794729
2484000000.0,0.281523,-0.793572
2488000000.0,0.252226,-0.794857
2492000000.0,0.239074,-0.814377
2496000000.0,0.212663,-0.81802
2500000000.0,0.187905,-0.814838
2504000000.0,0.178846,-0.816584
2508000000.0,0.152842,-0.812473
2512000000.0,0.13197,-0.820952
2516000000.0,0.093538,-0.820643
2520000000.0,0.077194,-0.818024
2524000000.0,0.039136,-0.824846
2528000000.0,0.033369,-0.813634
2532000000.0,0.013119,-0.808624
2536000000.0,-0.018947,-0.802208
2540000000.0,-0.051342,-0.789533
2544000000.0,-0.067529,-0.786606
2548000000.0,-0.108609,-0.766504
2552000000.0,-0.13585,-0.752972
2556000000.0,-0.153906,-0.729795
2560000000.0,-0.181963,-0.711663
2564000000.0,-0.20874,-0.707442
2568000000.0,-0.226649,-0.68481
2572000000.0,-0.258971,-0.657948
2576000000.0,-0.282008,-0.638254
2580000000.0,-0.312206,-0.608047
2584000000.0,-0.307265,-0.596298
2588000000.0,-0.34426,-0.547093
2592000000.0,-0.364539,-0.514694
2596000000.0,-0.361328,-0.485192
2600000000.0,-0.373204,-0.451811
2604000000.0,-0.387814,-0.410403
2608000000.0,-0.391534,-0.380785
2612000000.0,-0.386789,-0.34915
2616000000.0,-0.389229,-0.308735
2620000000.0,-0.374235,-0.279403
2624000000.0,-0.368502,-0.248034
2628000000.0,-0.346799,-0.218742
2632000000.0,-0.342473,-0.191333
2636000000.0,-0.322825,-0.159929
2640000000.0,-0.303997,-0.149117
2644000000.0,-0.286589,-0.126314
2648000000.0,-0.265936,-0.104737
2652000000.0,-0.241129,-0.091325
2656000000.0,-0.22543,-0.080365
2660000000.0,-0.207479,-0.070314
2664000000.0,-0.188407,-0.060264
2668000000.0,-0.169897,-0.051998
2672000000.0,-0.151123,-0.048619
2676000000.0,-0.135148,-0.04313
2680000000.0,-0.119915,-0.043001
2684000000.0,-0.104866,-0.040471
2688000000.0,-0.091325,-0.040431
2692000000.0,-0.080466,-0.040317
2696000000.0,-0.066352,-0.042018
2700000000.0,-0.056285,-0.041267
2704000000.0,-0.047203,-0.042723
2708000000.0,-0.037739,-0.044129
2712000000.0,-0.030001,-0.045608
2716000000.0,-0.022809,-0.046242
2720000000.0,-0.014875,-0.047404
2724000000.0,-0.007506,-0.047881
2728000000.0,-0.002743,-0.048315
2732000000.0,0.003615,-0.048072
2736000000.0,0.008891,-0.047376
2740000000.0,0.015449,-0.046326
2744000000.0,0.020292,-0.045255
2748000000.0,0.026995,-0.043209
2752000000.0,0.03286,-0.041763
2756000000.0,0.040404,-0.039559
2760000000.0,0.047252,-0.037236
2764000000.0,0.055996,-0.034495
2768000000.0,0.064463,-0.032947
2772000000.0,0.073029,-0.031906
2776000000.0,0.081664,-0.030009
2780000000.0,0.09103,-0.031764
2784000000.0,0.098406,-0.031526
2788000000.0,0.109983,-0.032689
2792000000.0,0.120066,-0.033607
2796000000.0,0.128632,-0.035445
2800000000.0,0.138779,-0.035654
2804000000.0,0.148228,-0.041942
2808000000.0,0.158539,-0.041602
2812000000.0,0.167657,-0.049823
2816000000.0,0.172877,-0.056373
2820000000.0,0.183362,-0.058669
2824000000.0,0.191407,-0.06387
2828000000.0,0.201498,-0.069327
2832000000.0,0.210464,-0.075099
2836000000.0,0.216442,-0.085266
2840000000.0,0.225859,-0.083977
2844000000.0,0.233051,-0.094919
2848000000.0,0.237335,-0.106367
2852000000.0,0.244999,-0.114703
2856000000.0,0.252023,-0.116159
2860000000.0,0.262036,-0.133763
2864000000.0,0.269701,-0.127794
2868000000.0,0.270027,-0.141498
2872000000.0,0.276451,-0.152812
2876000000.0,0.280727,-0.165023
2880000000.0,0.279882,-0.180766
2884000000.0,0.283746,-0.18447
2888000000.0,0.295289,-0.190446
2892000000.0,0.30137,-0.200933
2896000000.0,0.303273,-0.211833
2900000000.0,0.309927,-0.222904
2904000000.0,0.311406,-0.234749
2908000000.0,0.313715,-0.250626
2912000000.0,0.315889,-0.264943
2916000000.0,0.315134,-0.276541
2920000000.0,0.322629,-0.283199
2924000000.0,0.321015,-0.298467
2928000000.0,0.319465,-0.313111
2932000000.0,0.323165,-0.329483
2936000000.0,0.321386,-0.34245
2940000000.0,0.318866,-0.357869
2944000000.0,0.318152,-0.372603
2948000000.0,0.317607,-0.381831
2952000000.0,0.30867,-0.403444
2956000000.0,0.302886,-0.416394
2960000000.0,0.301846,-0.4308
2964000000.0,0.291659,-0.447908
2968000000.0,0.292018,-0.458075
2972000000.0,0.275164,-0.477737
2976000000.0,0.257331,-0.494921
2980000000.0,0.251114,-0.510241
2984000000.0,0.245288,-0.523524
2988000000.0,0.222366,-0.540837
2992000000.0,0.199628,-0.550616
2996000000.0,0.185201,-0.56241
3000000000.0,0.171659,-0.571511
