Freq (Hz),s21avg
2000000000.0,-0.36969127438251265
2001001001.0010011,-0.3740933706758319
2002002002.002002,-0.3784954669691502
2003003003.0030031,-0.38289756326246943
2004004004.004004,-0.3854366057377029
2005005005.0050051,-0.3861384958382018
2006006006.006006,-0.3868403859387005
2007007007.0070071,-0.3875422760391995
2008008008.008008,-0.38824416613969814
2009009009.0090091,-0.3935305884602941
2010010010.01001,-0.40324827447051803
2011011011.0110111,-0.41296596048074435
2012012012.012012,-0.42268364649096857
2013013013.0130131,-0.4324013325011949
2014014014.014014,-0.43888892123397244
2015015015.0150151,-0.4423162522735134
2016016016.016016,-0.44574358331305336
2017017017.0170171,-0.4491709143525945
2018018018.018018,-0.45259824539213456
2019019019.0190191,-0.4583509989856275
2020020020.02002,-0.4662632336972046
2021021021.0210211,-0.47417546840878344
2022022022.022022,-0.48208770312036064
2023023023.0230231,-0.4899999378319396
2024024024.024024,-0.5001045402563328
2025025025.0250251,-0.5122046789083442
2026026026.026026,-0.5243048175603527
2027027027.0270271,-0.536404956212364
2028028028.028028,-0.5485050948643726
2029029029.0290291,-0.5532281253077127
2030030030.03003,-0.5513696864598743
2031031031.0310311,-0.5495112476120355
2032032032.032032,-0.5476528087641973
2033033033.0330331,-0.5457943699163585
2034034034.034034,-0.550161374458818
2035035035.0350351,-0.5599719953866094
2036036036.036036,-0.5697826163143984
2037037037.0370371,-0.5795932372421899
2038038038.038038,-0.5894038581699792
2039039039.0390391,-0.6005224774116515
2040040040.04004,-0.6127620645676315
2041041041.0410411,-0.6250016517236143
2042042042.042042,-0.6372412388795942
2043043043.0430431,-0.6494808260355769
2044044044.044044,-0.6599929997418009
2045045045.0450451,-0.6690542732827771
2046046046.046046,-0.6781155468237511
2047047047.0470471,-0.6871768203647272
2048048048.048048,-0.6962380939057011
2049049049.0490491,-0.7028572367607098
2050050050.05005,-0.7074661298350169
2051051051.0510511,-0.7120750229093249
2052052052.052052,-0.716683915983632
2053053053.0530531,-0.72129280905794
2054054054.054054,-0.7286753476717178
2055055055.0550551,-0.7382953437983677
2056056056.056056,-0.7479153399250152
2057057057.0570571,-0.7575353360516648
2058058058.058058,-0.7671553321783124
2059059059.0590591,-0.7718951887359519
2060060060.06006,-0.7727772447211327
2061061061.0610611,-0.7736593007063136
2062062062.062062,-0.7745413566914946
2063063063.0630631,-0.7754234126766757
2064064064.064064,-0.780274039018032
2065065065.0650651,-0.7881988108083172
2066066066.066066,-0.7961235825986004
2067067067.0670671,-0.8040483543888858
2068068068.068068,-0.8119731261791691
2069069069.0690691,-0.8192839496317565
2070070070.07007,-0.8261287771165036
2071071071.0710711,-0.832973604601252
2072072072.072072,-0.8398184320859989
2073073073.0730731,-0.8466632595707475
2074074074.074074,-0.8489150504402183
2075075075.0750751,-0.8477510956838563
2076076076.076076,-0.8465871409274944
2077077077.0770772,-0.8454231861711323
2078078078.078078,-0.8442592314147707
2079079079.0790792,-0.8489446941945802
2080080080.08008,-0.8578920921368709
2081081081.0810812,-0.8668394900791634
2082082082.082082,-0.8757868880214538
2083083083.0830832,-0.8847342859637466
2084084084.084084,-0.8924714543366641
2085085085.0850852,-0.8993447656133642
2086086086.086086,-0.9062180768900625
2087087087.0870872,-0.9130913881667624
2088088088.088088,-0.9199646994434607
2089089089.0890892,-0.9288714513251669
2090090090.09009,-0.9392000567480089
2091091091.0910912,-0.9495286621708534
2092092092.092092,-0.9598572675936954
2093093093.0930932,-0.9701858730165401
2094094094.094094,-0.9790283161252663
2095095095.0950952,-0.9868528569918921
2096096096.096096,-0.9946773978585156
2097097097.0970972,-1.0025019387251413
2098098098.098098,-1.010326479591765
2099099099.0990992,-1.019063743027043
2100100100.1001,-1.028413300716812
2101101101.1011012,-1.0377628584065832
2102102102.102102,-1.0471124160963519
2103103103.1031032,-1.056461973786123
2104104104.104104,-1.0584399421091772
2105105105.1051052,-1.0555747701109346
2106106106.106106,-1.0527095981126924
2107107107.1071072,-1.0498444261144495
2108108108.108108,-1.0469792541162077
2109109109.1091092,-1.0574526642500974
2110110110.11011,-1.076507923035963
2111111111.1111112,-1.0955631818218337
2112112112.112112,-1.1146184406076995
2113113113.1131132,-1.13367369939357
2114114114.114114,-1.1451638508479258
2115115115.1151152,-1.1518880463387482
2116116116.116116,-1.158612241829569
2117117117.1171172,-1.1653364373203914
2118118118.118118,-1.1720606328112122
2119119119.1191192,-1.1740074124186184
2120120120.12012,-1.17300741084652
2121121121.1211212,-1.1720074092744217
2122122122.122122,-1.1710074077023234
2123123123.1231232,-1.1700074061302252
2124124124.124124,-1.174456812548894
2125125125.1251252,-1.1821968398312752
2126126126.126126,-1.1899368671136545
2127127127.1271272,-1.1976768943960359
2128128128.128128,-1.2054169216784154
2129129129.1291292,-1.2186054585839312
2130130130.13013,-1.235014554479093
2131131131.1311312,-1.2514236503742584
2132132132.132132,-1.2678327462694203
2133133133.1331332,-1.2842418421645856
2134134134.134134,-1.2966014275282665
2135135135.1351352,-1.3066182416057808
2136136136.136136,-1.316635055683293
2137137137.1371372,-1.3266518697608074
2138138138.138138,-1.3366686838383195
2139139139.1391392,-1.3473063080334924
2140140140.14014,-1.3582954167353714
2141141141.1411412,-1.3692845254372528
2142142142.142142,-1.3802736341391317
2143143143.1431432,-1.3912627428410134
2144144144.144144,-1.4003069411250315
2145145145.1451452,-1.408273656015163
2146146146.146146,-1.4162403709052929
2147147147.1471472,-1.4242070857954248
2148148148.148148,-1.4321738006855547
2149149149.149149,-1.4400116889442471
2150150150.1501503,-1.4477797505862118
2151151151.151151,-1.4555478122281726
2152152152.152152,-1.463315873870134
2153153153.153153,-1.471083935512095
2154154154.1541543,-1.4847032317790625
2155155155.155155,-1.5014249806819273
2156156156.156156,-1.5181467295847921
2157157157.157157,-1.534868478487657
2158158158.1581583,-1.55159022739053
2159159159.159159,-1.5661655040012974
2160160160.16016,-1.5796276138880696
2161161161.161161,-1.5930897237748414
2162162162.1621623,-1.60655183366162
2163163163.163163,-1.620013943548392
2164164164.164164,-1.6371293069946062
2165165165.165165,-1.6560974508820447
2166166166.1661663,-1.6750655947694923
2167167167.167167,-1.694033738656931
2168168168.168168,-1.7130018825443696
2169169169.169169,-1.726324854083193
2170170170.1701703,-1.7368484619218463
2171171171.171171,-1.747372069760495
2172172172.172172,-1.757895677599143
2173173173.173173,-1.7684192854377916
2174174174.1741743,-1.7827185999165809
2175175175.175175,-1.7988483052164543
2176176176.176176,-1.8149780105163273
2177177177.177177,-1.8311077158162008
2178178178.1781783,-1.847237421116081
2179179179.179179,-1.8695846596197025
2180180180.18018,-1.8948780100245828
2181181181.181181,-1.9201713604294632
2182182182.1821823,-1.9454647108343555
2183183183.183183,-1.9707580612392352
2184184184.184184,-1.990732302466558
2185185185.1851854,-2.0082434887491964
2186186186.1861863,-2.0257546750318265
2187187187.187187,-2.043265861314457
2188188188.188188,-2.060777047597087
2189189189.189189,-2.082380717686999
2190190190.1901903,-2.1058359617870437
2191191191.191191,-2.1292912058870774
2192192192.192192,-2.152746449987111
2193193193.1931934,-2.176201694087156
2194194194.1941943,-2.2064331423212815
2195195195.195195,-2.2396594089650637
2196196196.196196,-2.2728856756088454
2197197197.197197,-2.3061119422526275
2198198198.1981983,-2.339338208896425
2199199199.199199,-2.3635901757220905
2200200200.2002,-2.3839684827121634
2201201201.2012014,-2.404346789702246
2202202202.2022023,-2.4247250966923195
2203203203.203203,-2.4451034036823924
2204204204.204204,-2.4744906614291544
2205205205.205205,-2.5076748685708834
2206206206.2062063,-2.540859075712629
2207207207.207207,-2.5740432828543574
2208208208.208208,-2.6072274899960868
2209209209.2092094,-2.6470790317129116
2210210210.2102103,-2.689673732256303
2211211211.211211,-2.7322684327996947
2212212212.212212,-2.7748631333430867
2213213213.213213,-2.8174578338864777
2214214214.2142143,-2.856216475921496
2215215215.215215,-2.893434780517597
2216216216.216216,-2.9306530851136974
2217217217.2172174,-2.9678713897098152
2218218218.2182183,-3.0050896943059158
2219219219.219219,-3.0458510976875774
2220220220.22022,-3.0880006462440956
2221221221.221221,-3.1301501948006143
2222222222.2222223,-3.172299743357153
2223223223.223223,-3.214449291913671
2224224224.224224,-3.2616141823351867
2225225225.2252254,-3.3106957859919333
2226226226.2262263,-3.3597773896486567
2227227227.227227,-3.4088589933053797
2228228228.228228,-3.4579405969621027
2229229229.229229,-3.5068928934776986
2230230230.2302303,-3.555796999342919
2231231231.231231,-3.6047011052081155
2232232232.232232,-3.6536052110733124
2233233233.2332335,-3.7025093169385324
2234234234.2342343,-3.757257314095297
2235235235.235235,-3.8141285519190022
2236236236.236236,-3.8709997897427066
2237237237.2372375,-3.9278710275664395
2238238238.2382383,-3.984742265390145
2239239239.239239,-4.044934646762421
2240240240.24024,-4.106303032248375
2241241241.2412415,-4.167671417734358
2242242242.2422423,-4.22903980322031
2243243243.243243,-4.290408188706264
2244244244.244244,-4.350317999966339
2245245245.2452455,-4.4097246178317695
2246246246.2462463,-4.469131235697173
2247247247.247247,-4.528537853562576
2248248248.248248,-4.587944471427977
2249249249.2492495,-4.643826522273637
2250250250.2502503,-4.698524299765262
2251251251.251251,-4.75322207725689
2252252252.252252,-4.807919854748516
2253253253.2532535,-4.862617632240168
2254254254.2542543,-4.957470659316455
2255255255.255255,-5.065460075274772
2256256256.256256,-5.173449491233088
2257257257.2572575,-5.281438907191456
2258258258.2582583,-5.389428323149774
2259259259.259259,-5.455046960258412
2260260260.26026,-5.507175098893492
2261261261.2612615,-5.559303237528598
2262262262.2622623,-5.611431376163676
2263263263.263263,-5.663559514798756
2264264264.264264,-5.7362494595733775
2265265265.2652655,-5.8153085820192905
2266266266.2662663,-5.894367704465166
2267267267.267267,-5.973426826911042
2268268268.268268,-6.0524859493569165
2269269269.2692695,-6.118603012003627
2270270270.2702703,-6.180821458067981
2271271271.271271,-6.243039904132336
2272272272.272272,-6.305258350196691
2273273273.2732735,-6.367476796261076
2274274274.2742743,-6.452836719578909
2275275275.275275,-6.544973041859777
2276276276.276276,-6.637109364140647
2277277277.2772775,-6.729245686421558
2278278278.2782784,-6.821382008702426
2279279279.279279,-6.904330255441025
2280280280.28028,-6.984664296999647
2281281281.2812815,-7.064998338558307
2282282282.2822824,-7.145332380116928
2283283283.283283,-7.22566642167555
2284284284.284284,-7.305679221879503
2285285285.2852855,-7.3856032553275455
2286286286.2862864,-7.465527288775552
2287287287.287287,-7.545451322223556
2288288288.288288,-7.62537535567156
2289289289.2892895,-7.697293739422323
2290290290.2902904,-7.767064761206053
2291291291.291291,-7.836835782989785
2292292292.292292,-7.906606804773517
2293293293.2932935,-7.9763778265572824
2294294294.2942944,-8.042121182578343
2295295295.2952952,-8.106816381094687
2296296296.296296,-8.171511579611032
2297297297.2972975,-8.236206778127409
2298298298.2982984,-8.300901976643754
2299299299.2992992,-8.351463756218457
2300300300.3003,-8.398458993630681
2301301301.3013015,-8.445454231042927
2302302302.3023024,-8.49244946845515
2303303303.3033032,-8.539444705867371
2304304304.304304,-8.602151431869576
2305305305.3053055,-8.668700482088283
2306306306.3063064,-8.735249532306963
2307307307.3073072,-8.801798582525636
2308308308.308308,-8.86834763274431
2309309309.3093095,-8.919950646110049
2310310310.3103104,-8.968013565403599
2311311311.3113112,-9.016076484697148
2312312312.312312,-9.0641394039907
2313313313.3133135,-9.112202323284274
2314314314.3143144,-9.1494630345404
2315315315.3153152,-9.184247271550703
2316316316.316316,-9.219031508561006
2317317317.3173175,-9.253815745571323
2318318318.3183184,-9.288599982581626
2319319319.3193192,-9.331539649778021
2320320320.32032,-9.376287759953986
2321321321.3213215,-9.421035870129973
2322322322.3223224,-9.465783980305934
2323323323.3233232,-9.510532090481897
2324324324.324324,-9.532936362065573
2325325325.3253255,-9.55055169920901
2326326326.3263264,-9.56816703635244
2327327327.3273273,-9.58578237349587
2328328328.328328,-9.603397710639303
2329329329.3293295,-9.608975458241362
2330330330.3303304,-9.61206141754366
2331331331.3313313,-9.615147376845961
2332332332.332332,-9.618233336148261
2333333333.3333335,-9.621319295450565
2334334334.3343344,-9.633156573653336
2335335335.3353353,-9.646742015739646
2336336336.336336,-9.660327457825955
2337337337.3373375,-9.67391289991227
2338338338.3383384,-9.68749834199858
2339339339.3393393,-9.683737806444453
2340340340.34034,-9.676636334230903
2341341341.3413415,-9.669534862017347
2342342342.3423424,-9.662433389803796
2343343343.3433433,-9.655331917590242
2344344344.344344,-9.63243105711881
2345345345.3453455,-9.606598834154937
2346346346.3463464,-9.580766611191077
2347347347.3473473,-9.55493438822722
2348348348.348348,-9.529102165263357
2349349349.3493495,-9.505773342354983
2350350350.3503504,-9.482891502485405
2351351351.3513513,-9.460009662615825
2352352352.352352,-9.437127822746243
2353353353.3533535,-9.414245982876654
2354354354.3543544,-9.373075152357991
2355355355.3553553,-9.328765086771856
2356356356.356356,-9.284455021185718
2357357357.3573575,-9.240144955599561
2358358358.3583584,-9.195834890013424
2359359359.3593593,-9.140710201890016
2360360360.36036,-9.083803022107872
2361361361.3613615,-9.026895842325702
2362362362.3623624,-8.969988662543557
2363363363.3633633,-8.913081482761413
2364364364.3643646,-8.865623807286884
2365365365.3653655,-8.81965988669135
2366366366.3663664,-8.773695966095811
2367367367.3673673,-8.727732045500279
2368368368.368368,-8.681768124904742
2369369369.3693695,-8.624679530586285
2370370370.3703704,-8.565906544103704
2371371371.3713713,-8.507133557621124
2372372372.3723726,-8.448360571138513
2373373373.3733735,-8.389587584655935
2374374374.3743744,-8.334196226663748
2375375375.3753753,-8.279294595064274
2376376376.376376,-8.224392963464801
2377377377.3773775,-8.169491331865299
2378378378.3783784,-8.114589700265826
2379379379.3793793,-8.063543641381663
2380380380.3803806,-8.013030823345412
2381381381.3813815,-7.962518005309183
2382382382.3823824,-7.912005187272953
2383383383.3833833,-7.861492369236726
2384384384.384384,-7.812696248728362
2385385385.3853855,-7.764126495239779
2386386386.3863864,-7.71555674175122
2387387387.3873873,-7.666986988262662
2388388388.3883886,-7.618417234774078
2389389389.3893895,-7.575322286436996
2390390390.3903904,-7.532914384553928
2391391391.3913913,-7.490506482670857
2392392392.392392,-7.4480985807877875
2393393393.3933935,-7.405690678904696
2394394394.3943944,-7.373541857445768
2395395395.3953953,-7.3426158586675
2396396396.3963966,-7.311689859889218
2397397397.3973975,-7.280763861110953
2398398398.3983984,-7.249837862332685
2399399399.3993993,-7.213800277314737
2400400400.4004,-7.177185256566877
2401401401.4014015,-7.140570235818998
2402402402.4024024,-7.103955215071136
2403403403.4034033,-7.067340194323276
2404404404.4044046,-7.025799737574735
2405405405.4054055,-6.983733210462003
2406406406.4064064,-6.941666683349274
2407407407.4074073,-6.899600156236542
2408408408.408408,-6.857533629123812
2409409409.4094095,-6.825272879105718
2410410410.4104104,-6.793999722487929
2411411411.4114113,-6.762726565870141
2412412412.4124126,-6.731453409252336
2413413413.4134135,-6.7001802526345475
2414414414.4144144,-6.668527278594065
2415415415.4154153,-6.636838339357018
2416416416.416416,-6.605149400119972
2417417417.4174175,-6.57346046088291
2418418418.4184184,-6.541771521645861
2419419419.4194193,-6.522300936723434
2420420420.4204206,-6.503914506266585
2421421421.4214215,-6.485528075809742
2422422422.4224224,-6.467141645352902
2423423423.4234233,-6.44875521489606
2424424424.424424,-6.429662789712372
2425425425.4254255,-6.410511882020174
2426426426.4264264,-6.3913609743279824
2427427427.4274273,-6.372210066635791
2428428428.4284286,-6.353059158943592
2429429429.4294295,-6.334193533938432
2430430430.4304304,-6.315349877390057
2431431431.4314313,-6.29650622084168
2432432432.432432,-6.277662564293304
2433433433.4334335,-6.258818907744918
2434434434.4344344,-6.256652147569527
2435435435.4354353,-6.255673404114866
2436436436.4364367,-6.2546946606602045
2437437437.4374375,-6.253715917205544
2438438438.4384384,-6.252737173750884
2439439439.4394393,-6.223912379256921
2440440440.44044,-6.193262830219624
2441441441.4414415,-6.162613281182314
2442442442.4424424,-6.131963732145017
2443443443.4434433,-6.101314183107721
2444444444.4444447,-6.101810071298644
2445445445.4454455,-6.104171054564709
2446446446.4464464,-6.106532037830776
2447447447.4474473,-6.108893021096842
2448448448.448448,-6.111254004362907
2449449449.4494495,-6.112370897983034
2450450450.4504504,-6.113420242191703
2451451451.4514513,-6.114469586400373
2452452452.4524527,-6.115518930609043
2453453453.4534535,-6.116568274817711
2454454454.4544544,-6.14321789324671
2455455455.4554553,-6.171115978116445
2456456456.456456,-6.199014062986182
2457457457.4574575,-6.22691214785593
2458458458.4584584,-6.254810232725665
2459459459.4594593,-6.279831629356709
2460460460.4604607,-6.304728474540808
2461461461.4614615,-6.3296253197248955
2462462462.4624624,-6.354522164908984
2463463463.4634633,-6.379419010093072
2464464464.4644647,-6.401534176357352
2465465465.4654655,-6.423543965060051
2466466466.4664664,-6.445553753762749
2467467467.4674673,-6.467563542465447
2468468468.4684687,-6.489573331168155
2469469469.4694695,-6.529450409256187
2470470470.4704704,-6.56990861239908
2471471471.4714713,-6.610366815541973
2472472472.4724727,-6.650825018684884
2473473473.4734735,-6.691283221827777
2474474474.4744744,-6.737728185364844
2475475475.4754753,-6.784336116698978
2476476476.4764767,-6.8309440480331345
2477477477.4774776,-6.87755197936727
2478478478.4784784,-6.924159910701403
2479479479.4794793,-6.994714223927021
2480480480.4804807,-7.065794696795665
2481481481.4814816,-7.136875169664277
2482482482.4824824,-7.2079556425328875
2483483483.4834833,-7.279036115401498
2484484484.4844847,-7.35575218003944
2485485485.4854856,-7.432562791971901
2486486486.4864864,-7.509373403904361
2487487487.4874873,-7.586184015836821
2488488488.4884887,-7.662994627769318
2489489489.4894896,-7.753050764840628
2490490490.4904904,-7.843260997550881
2491491491.4914913,-7.933471230261134
2492492492.4924927,-8.02368146297143
2493493493.4934936,-8.113891695681684
2494494494.4944944,-8.22542193822489
2495495495.4954953,-8.337091667495738
2496496496.4964967,-8.448761396766642
2497497497.4974976,-8.560431126037493
2498498498.4984984,-8.672100855308344
2499499499.4994993,-8.783466941975485
2500500500.5005007,-8.894832572494554
2501501501.5015016,-9.00619820301357
2502502502.5025024,-9.117563833532584
2503503503.5035033,-9.22891530243099
2504504504.5045047,-9.336234755632004
2505505505.5055056,-9.44355420883297
2506506506.5065064,-9.550873662033935
2507507507.5075073,-9.6581931152349
2508508508.5085087,-9.765575929544967
2509509509.5095096,-9.88034963086938
2510510510.5105104,-9.995123332193796
2511511511.5115113,-10.109897033518212
2512512512.5125127,-10.224670734842679
2513513513.5135136,-10.339028907238042
2514514514.5145144,-10.423022687891855
2515515515.5155153,-10.50701646854567
2516516516.5165167,-10.591010249199524
2517517517.5175176,-10.675004029853337
2518518518.5185184,-10.758380939393515
2519519519.5195193,-10.809030335526343
2520520520.5205207,-10.859679731659199
2521521521.5215216,-10.910329127792028
2522522522.5225224,-10.960978523924856
2523523523.5235233,-11.011025164201108
2524524524.5245247,-11.036025374947524
2525525525.5255256,-11.061025585693926
