Freq (Hz),Real Part,Imaginary Part
2000000000.0,0.76655,0.36767
2005000000.0,0.771051,0.352829
2010000000.0,0.773633,0.327976
2015000000.0,0.779855,0.298068
2020000000.0,0.780467,0.280983
2025000000.0,0.776122,0.270218
2030000000.0,0.77599,0.231642
2035000000.0,0.779076,0.182338
2040000000.0,0.770283,0.174065
2045000000.0,0.759914,0.164508
2050000000.0,0.752585,0.140826
2055000000.0,0.74226,0.107483
2060000000.0,0.72915,0.095594
2065000000.0,0.718527,0.075422
2070000000.0,0.704523,0.04099
2075000000.0,0.682048,0.03195
2080000000.0,0.664197,0.021818
2085000000.0,0.638925,-0.004032
2090000000.0,0.616202,-0.009417
2095000000.0,0.5942,-0.025105
2100000000.0,0.56652,-0.026967
2105000000.0,0.537924,-0.030322
2110000000.0,0.517843,-0.020354
2115000000.0,0.494035,-0.019473
2120000000.0,0.477343,-0.007562
2125000000.0,0.461671,0.003218
2130000000.0,0.449559,0.020517
2135000000.0,0.436956,0.027394
2140000000.0,0.433411,0.051615
2145000000.0,0.427021,0.066874
2150000000.0,0.441088,0.068974
2155000000.0,0.446254,0.08917
2160000000.0,0.452743,0.093417
2165000000.0,0.460434,0.096278
2170000000.0,0.475056,0.09788
2175000000.0,0.479174,0.095835
2180000000.0,0.490582,0.080696
2185000000.0,0.499098,0.071799
2190000000.0,0.505212,0.059127
2195000000.0,0.511597,0.059712
2200000000.0,0.509265,0.042867
2205000000.0,0.508227,0.032173
2210000000.0,0.502795,0.020494
2215000000.0,0.501674,0.010594
2220000000.0,0.500133,-0.006825
2225000000.0,0.491394,-0.007584
2230000000.0,0.481909,-0.016667
2235000000.0,0.468267,-0.025111
2240000000.0,0.465873,-0.034655
2245000000.0,0.443293,-0.03994
2250000000.0,0.440765,-0.052629
2255000000.0,0.424642,-0.051034
2260000000.0,0.428076,-0.062905
2265000000.0,0.402061,-0.050498
2270000000.0,0.390726,-0.055799
2275000000.0,0.376672,-0.047926
2280000000.0,0.363583,-0.049757
2285000000.0,0.346631,-0.041939
2290000000.0,0.328309,-0.037737
2295000000.0,0.314507,-0.057468
2300000000.0,0.305817,-0.018168
2305000000.0,0.291173,-0.006218
2310000000.0,0.278148,0.012206
2315000000.0,0.267753,0.027442
2320000000.0,0.255788,0.051549
2325000000.0,0.250704,0.070465
2330000000.0,0.244513,0.09892
2335000000.0,0.248721,0.130037
2340000000.0,0.250706,0.157525
2345000000.0,0.261905,0.197441
2350000000.0,0.28608,0.220543
2355000000.0,0.311375,0.250708
2360000000.0,0.336123,0.284162
2365000000.0,0.383293,0.290347
2370000000.0,0.417763,0.310667
2375000000.0,0.460348,0.320606
2380000000.0,0.490866,0.326213
2385000000.0,0.541355,0.310393
2390000000.0,0.583463,0.300462
2395000000.0,0.615767,0.288244
2400000000.0,0.653889,0.255241
2405000000.0,0.680272,0.202216
2410000000.0,0.695771,0.155542
2415000000.0,0.710129,0.152996
2420000000.0,0.727802,0.151243
2425000000.0,0.736619,0.083169
2430000000.0,0.742248,0.067964
2435000000.0,0.739964,0.064038
2440000000.0,0.740066,0.039576
2445000000.0,0.752089,0.000698
2450000000.0,0.754181,-0.000846
2455000000.0,0.743185,-0.039378
2460000000.0,0.747086,-0.047056
2465000000.0,0.750676,-0.073221
2470000000.0,0.743823,-0.091834
2475000000.0,0.750359,-0.103122
2480000000.0,0.747697,-0.122357
2485000000.0,0.742975,-0.158998
2490000000.0,0.737507,-0.147247
2495000000.0,0.741751,-0.18579
2500000000.0,0.725426,-0.194068
2505000000.0,0.729575,-0.204299
2510000000.0,0.720778,-0.223134
2515000000.0,0.713654,-0.242491
2520000000.0,0.710927,-0.260104
2525000000.0,0.7193,-0.267679
2530000000.0,0.70948,-0.273792
2535000000.0,0.689707,-0.306122
2540000000.0,0.701105,-0.293207
2545000000.0,0.682034,-0.331236
2550000000.0,0.685348,-0.336832
2555000000.0,0.684018,-0.342192
2560000000.0,0.657602,-0.364229
2565000000.0,0.671731,-0.363886
2570000000.0,0.66268,-0.377147
2575000000.0,0.65143,-0.405193
2580000000.0,0.658661,-0.407279
2585000000.0,0.651403,-0.426535
2590000000.0,0.639973,-0.442889
2595000000.0,0.623637,-0.454641
2600000000.0,0.64245,-0.450248
2605000000.0,0.616456,-0.485837
2610000000.0,0.60697,-0.492493
2615000000.0,0.597398,-0.499171
2620000000.0,0.572508,-0.527724
2625000000.0,0.575614,-0.535519
2630000000.0,0.547496,-0.548379
2635000000.0,0.521776,-0.592613
2640000000.0,0.517356,-0.580204
2645000000.0,0.503646,-0.593133
2650000000.0,0.473701,-0.624486
2655000000.0,0.465553,-0.615326
2660000000.0,0.451904,-0.626461
2665000000.0,0.442519,-0.643258
2670000000.0,0.409157,-0.6592
2675000000.0,0.388746,-0.661429
2680000000.0,0.373816,-0.671444
2685000000.0,0.336104,-0.676249
2690000000.0,0.339207,-0.680786
2695000000.0,0.315981,-0.678354
2700000000.0,0.278406,-0.686703
2705000000.0,0.270182,-0.685782
2710000000.0,0.246653,-0.684794
2715000000.0,0.23835,-0.669155
2720000000.0,0.209732,-0.675151
2725000000.0,0.16255,-0.651384
2730000000.0,0.184147,-0.648568
2735000000.0,0.150293,-0.639801
2740000000.0,0.12711,-0.619269
2745000000.0,0.104676,-0.619322
2750000000.0,0.10158,-0.596934
2755000000.0,0.076667,-0.575004
2760000000.0,0.050586,-0.559199
2765000000.0,0.058365,-0.545113
2770000000.0,0.03542,-0.532587
2775000000.0,0.051801,-0.514116
2780000000.0,0.031517,-0.493877
2785000000.0,0.043797,-0.47306
2790000000.0,0.049847,-0.459274
2795000000.0,0.051405,-0.445324
2800000000.0,0.060599,-0.434826
2805000000.0,0.065194,-0.431282
2810000000.0,0.079548,-0.419855
2815000000.0,0.093332,-0.405079
2820000000.0,0.099884,-0.40421
2825000000.0,0.113205,-0.401488
2830000000.0,0.127562,-0.405719
2835000000.0,0.143287,-0.405751
2840000000.0,0.142162,-0.408246
2845000000.0,0.143247,-0.42088
2850000000.0,0.181057,-0.426508
2855000000.0,0.158562,-0.439505
2860000000.0,0.158395,-0.456119
2865000000.0,0.164164,-0.452951
2870000000.0,0.164255,-0.465645
2875000000.0,0.160169,-0.47504
2880000000.0,0.160548,-0.480521
2885000000.0,0.162146,-0.489464
2890000000.0,0.147608,-0.499552
2895000000.0,0.145952,-0.501402
2900000000.0,0.145933,-0.510746
2905000000.0,0.131358,-0.513268
2910000000.0,0.125322,-0.522323
2915000000.0,0.129969,-0.521413
2920000000.0,0.124242,-0.528926
2925000000.0,0.122228,-0.528972
2930000000.0,0.104205,-0.535722
2935000000.0,0.093913,-0.541908
2940000000.0,0.086472,-0.540737
2945000000.0,0.076064,-0.549565
2950000000.0,0.07205,-0.552149
2955000000.0,0.064665,-0.558899
2960000000.0,0.041686,-0.559882
2965000000.0,0.05572,-0.570968
2970000000.0,0.042734,-0.565539
2975000000.0,0.036967,-0.566793
2980000000.0,0.037898,-0.572677
2985000000.0,0.022418,-0.569903
2990000000.0,0.011792,-0.574212
2995000000.0,0.004389,-0.584426
3000000000.0,-0.005243,-0.575369
