Freq (Hz),Real Part,Imaginary Part
2000000000.0,0.767399,0.381905
2005000000.0,0.770093,0.376868
2010000000.0,0.778966,0.344427
2015000000.0,0.786801,0.324144
2020000000.0,0.789444,0.297657
2025000000.0,0.785406,0.295374
2030000000.0,0.789323,0.263187
2035000000.0,0.791999,0.232095
2040000000.0,0.786578,0.215557
2045000000.0,0.78255,0.197239
2050000000.0,0.779205,0.178778
2055000000.0,0.773938,0.139699
2060000000.0,0.767276,0.128639
2065000000.0,0.757297,0.106465
2070000000.0,0.750865,0.076348
2075000000.0,0.73066,0.072891
2080000000.0,0.720861,0.04357
2085000000.0,0.699664,0.017547
2090000000.0,0.68442,0.008491
2095000000.0,0.666208,-0.015471
2100000000.0,0.64004,-0.036808
2105000000.0,0.618928,-0.037103
2110000000.0,0.597383,-0.053257
2115000000.0,0.571963,-0.054142
2120000000.0,0.548568,-0.062201
2125000000.0,0.523944,-0.057086
2130000000.0,0.504927,-0.044761
2135000000.0,0.481325,-0.053103
2140000000.0,0.465391,-0.030661
2145000000.0,0.448232,-0.009629
2150000000.0,0.444016,0.000233
2155000000.0,0.440392,0.011245
2160000000.0,0.438281,0.030261
2165000000.0,0.438465,0.03976
2170000000.0,0.446725,0.052046
2175000000.0,0.449425,0.059664
2180000000.0,0.463686,0.056754
2185000000.0,0.473861,0.059725
2190000000.0,0.482286,0.051059
2195000000.0,0.486834,0.060287
2200000000.0,0.494001,0.041044
2205000000.0,0.496511,0.034674
2210000000.0,0.501234,0.034264
2215000000.0,0.501122,0.0221
2220000000.0,0.501903,0.005366
2225000000.0,0.497616,-0.000318
2230000000.0,0.496851,-0.005978
2235000000.0,0.486421,-0.007737
2240000000.0,0.487736,-0.024145
2245000000.0,0.471252,-0.038807
2250000000.0,0.472902,-0.038038
2255000000.0,0.460776,-0.051547
2260000000.0,0.457182,-0.070719
2265000000.0,0.450089,-0.05119
2270000000.0,0.435957,-0.071326
2275000000.0,0.42982,-0.028909
2280000000.0,0.41904,-0.06924
2285000000.0,0.405767,-0.076481
2290000000.0,0.395101,-0.075287
2295000000.0,0.382511,-0.076357
2300000000.0,0.373501,-0.068827
2305000000.0,0.354125,-0.068593
2310000000.0,0.346248,-0.063218
2315000000.0,0.33212,-0.060605
2320000000.0,0.318662,-0.054719
2325000000.0,0.306946,-0.043404
2330000000.0,0.293583,-0.032121
2335000000.0,0.285077,-0.021256
2340000000.0,0.2698,-0.000432
2345000000.0,0.265975,0.027264
2350000000.0,0.258188,0.038308
2355000000.0,0.255842,0.066179
2360000000.0,0.255578,0.097358
2365000000.0,0.26164,0.121061
2370000000.0,0.270619,0.151155
2375000000.0,0.286302,0.185198
2380000000.0,0.300382,0.214146
2385000000.0,0.335797,0.23288
2390000000.0,0.373701,0.243417
2395000000.0,0.405465,0.271133
2400000000.0,0.448809,0.274278
2405000000.0,0.489821,0.260993
2410000000.0,0.533017,0.240365
2415000000.0,0.564023,0.24857
2420000000.0,0.592533,0.247848
2425000000.0,0.631073,0.197745
2430000000.0,0.657861,0.181623
2435000000.0,0.674982,0.17643
2440000000.0,0.693261,0.145593
2445000000.0,0.710463,0.105185
2450000000.0,0.729031,0.063431
2455000000.0,0.739003,0.035185
2460000000.0,0.741493,0.034245
2465000000.0,0.744779,-0.009283
2470000000.0,0.743968,-0.022208
2475000000.0,0.744037,-0.042605
2480000000.0,0.740827,-0.066118
2485000000.0,0.734017,-0.097317
2490000000.0,0.737436,-0.099053
2495000000.0,0.739459,-0.109495
2500000000.0,0.733488,-0.125177
2505000000.0,0.731215,-0.16893
2510000000.0,0.720209,-0.193728
2515000000.0,0.714887,-0.195479
2520000000.0,0.702568,-0.215141
2525000000.0,0.708924,-0.233321
2530000000.0,0.705073,-0.245848
2535000000.0,0.689325,-0.260604
2540000000.0,0.710875,-0.249987
2545000000.0,0.688891,-0.276303
2550000000.0,0.690665,-0.295381
2555000000.0,0.679274,-0.303323
2560000000.0,0.666596,-0.329707
2565000000.0,0.676687,-0.332797
2570000000.0,0.667589,-0.346834
2575000000.0,0.663033,-0.365535
2580000000.0,0.666122,-0.371196
2585000000.0,0.65861,-0.386266
2590000000.0,0.658749,-0.400583
2595000000.0,0.653375,-0.411765
2600000000.0,0.635741,-0.436679
2605000000.0,0.631265,-0.47143
2610000000.0,0.62725,-0.456825
2615000000.0,0.617526,-0.470825
2620000000.0,0.616123,-0.479234
2625000000.0,0.593527,-0.505528
2630000000.0,0.578631,-0.522289
2635000000.0,0.565546,-0.542994
2640000000.0,0.559209,-0.548986
2645000000.0,0.554704,-0.554919
2650000000.0,0.518012,-0.585867
2655000000.0,0.508716,-0.581414
2660000000.0,0.480805,-0.606442
2665000000.0,0.484513,-0.619077
2670000000.0,0.458103,-0.640174
2675000000.0,0.431357,-0.657349
2680000000.0,0.418156,-0.660968
2685000000.0,0.402854,-0.673626
2690000000.0,0.359931,-0.689011
2695000000.0,0.355809,-0.684584
2700000000.0,0.321466,-0.688176
2705000000.0,0.321131,-0.68981
2710000000.0,0.281891,-0.689979
2715000000.0,0.255783,-0.695858
2720000000.0,0.248434,-0.69174
2725000000.0,0.202852,-0.673612
2730000000.0,0.217628,-0.66786
2735000000.0,0.16495,-0.66768
2740000000.0,0.157294,-0.654472
2745000000.0,0.135705,-0.639422
2750000000.0,0.119746,-0.625015
2755000000.0,0.080718,-0.603125
2760000000.0,0.077497,-0.585167
2765000000.0,0.071954,-0.571684
2770000000.0,0.055305,-0.55937
2775000000.0,0.053446,-0.541961
2780000000.0,0.031317,-0.518527
2785000000.0,0.041566,-0.505421
2790000000.0,0.044804,-0.489557
2795000000.0,0.047828,-0.469883
2800000000.0,0.052552,-0.455778
2805000000.0,0.063721,-0.444549
2810000000.0,0.070241,-0.437836
2815000000.0,0.080632,-0.422283
2820000000.0,0.082535,-0.416201
2825000000.0,0.102682,-0.410525
2830000000.0,0.11305,-0.416573
2835000000.0,0.128389,-0.41504
2840000000.0,0.129211,-0.414073
2845000000.0,0.134424,-0.419898
2850000000.0,0.152648,-0.422569
2855000000.0,0.152294,-0.436966
2860000000.0,0.152888,-0.442885
2865000000.0,0.157121,-0.455923
2870000000.0,0.162058,-0.458551
2875000000.0,0.161052,-0.470481
2880000000.0,0.158154,-0.478207
2885000000.0,0.156285,-0.489241
2890000000.0,0.149656,-0.499691
2895000000.0,0.151017,-0.498507
2900000000.0,0.152769,-0.507068
2905000000.0,0.137567,-0.509581
2910000000.0,0.130375,-0.518055
2915000000.0,0.128608,-0.52301
2920000000.0,0.124665,-0.532939
2925000000.0,0.108838,-0.531634
2930000000.0,0.104935,-0.537115
2935000000.0,0.095521,-0.538151
2940000000.0,0.083932,-0.542404
2945000000.0,0.079867,-0.547436
2950000000.0,0.081414,-0.552438
2955000000.0,0.070347,-0.556328
2960000000.0,0.053086,-0.560558
2965000000.0,0.050213,-0.563288
2970000000.0,0.042425,-0.567199
2975000000.0,0.039903,-0.567693
2980000000.0,0.022531,-0.560732
2985000000.0,0.026177,-0.571855
2990000000.0,0.005626,-0.567354
2995000000.0,-6.5e-05,-0.58395
3000000000.0,-0.006044,-0.575603
