Freq (Hz),Real Part,Imaginary Part
2000000000.0,0.762953,0.306278
2005000000.0,0.75913,0.292569
2010000000.0,0.762406,0.263764
2015000000.0,0.760305,0.228474
2020000000.0,0.751997,0.207541
2025000000.0,0.740112,0.187541
2030000000.0,0.732134,0.158149
2035000000.0,0.722292,0.1325
2040000000.0,0.704896,0.10827
2045000000.0,0.688867,0.087348
2050000000.0,0.665619,0.080132
2055000000.0,0.644299,0.053965
2060000000.0,0.622539,0.04403
2065000000.0,0.599687,0.036419
2070000000.0,0.57277,0.012984
2075000000.0,0.543889,0.032035
2080000000.0,0.521084,0.029486
2085000000.0,0.492947,0.030461
2090000000.0,0.472795,0.047764
2095000000.0,0.455419,0.055269
2100000000.0,0.438596,0.071788
2105000000.0,0.424982,0.092449
2110000000.0,0.424377,0.106498
2115000000.0,0.421962,0.130648
2120000000.0,0.423679,0.150234
2125000000.0,0.425492,0.186952
2130000000.0,0.44042,0.193591
2135000000.0,0.465202,0.183357
2140000000.0,0.477665,0.196454
2145000000.0,0.485317,0.205405
2150000000.0,0.511418,0.19151
2155000000.0,0.531187,0.173833
2160000000.0,0.541995,0.181085
2165000000.0,0.554027,0.164713
2170000000.0,0.564904,0.150416
2175000000.0,0.572582,0.139276
2180000000.0,0.586178,0.125287
2185000000.0,0.583868,0.103181
2190000000.0,0.595264,0.082358
2195000000.0,0.590946,0.073227
2200000000.0,0.588366,0.045131
2205000000.0,0.582496,0.032785
2210000000.0,0.577947,0.022704
2215000000.0,0.569493,0.0055
2220000000.0,0.565676,-0.013686
2225000000.0,0.552047,-0.030524
2230000000.0,0.539896,-0.035177
2235000000.0,0.525662,-0.0425
2240000000.0,0.51436,-0.059285
2245000000.0,0.494348,-0.066172
2250000000.0,0.479866,-0.129839
2255000000.0,0.474636,-0.072542
2260000000.0,0.472764,-0.094737
2265000000.0,0.445452,-0.068966
2270000000.0,0.430524,-0.081886
2275000000.0,0.416435,-0.077047
2280000000.0,0.401349,-0.081905
2285000000.0,0.384821,-0.080952
2290000000.0,0.365788,-0.074318
2295000000.0,0.351382,-0.073874
2300000000.0,0.338906,-0.056471
2305000000.0,0.319961,-0.047299
2310000000.0,0.307965,-0.037736
2315000000.0,0.297927,-0.022647
2320000000.0,0.283587,0.000621
2325000000.0,0.272019,0.033186
2330000000.0,0.264133,0.037634
2335000000.0,0.262859,0.061584
2340000000.0,0.258169,0.088219
2345000000.0,0.263797,0.124071
2350000000.0,0.274984,0.146285
2355000000.0,0.28837,0.175623
2360000000.0,0.303425,0.21365
2365000000.0,0.332945,0.226189
2370000000.0,0.357215,0.260291
2375000000.0,0.398839,0.276563
2380000000.0,0.424489,0.303603
2385000000.0,0.467532,0.301075
2390000000.0,0.513546,0.292266
2395000000.0,0.545118,0.2987
2400000000.0,0.589401,0.287683
2405000000.0,0.620745,0.279465
2410000000.0,0.663464,0.200553
2415000000.0,0.688899,0.206499
2420000000.0,0.708941,0.203111
2425000000.0,0.737543,0.13878
2430000000.0,0.754711,0.10462
2435000000.0,0.76361,0.099833
2440000000.0,0.780067,0.080499
2445000000.0,0.789617,0.041942
2450000000.0,0.793915,0.029499
2455000000.0,0.787588,-0.033328
2460000000.0,0.797545,-0.039355
2465000000.0,0.796268,-0.064493
2470000000.0,0.788568,-0.089269
2475000000.0,0.783067,-0.122748
2480000000.0,0.783748,-0.133498
2485000000.0,0.771574,-0.165273
2490000000.0,0.770724,-0.165738
2495000000.0,0.761094,-0.193289
2500000000.0,0.758549,-0.168339
2505000000.0,0.740226,-0.267066
2510000000.0,0.742913,-0.243343
2515000000.0,0.733861,-0.263184
2520000000.0,0.7232,-0.272285
2525000000.0,0.726246,-0.290691
2530000000.0,0.712627,-0.310422
2535000000.0,0.679069,-0.371908
2540000000.0,0.708966,-0.314907
2545000000.0,0.696095,-0.336286
2550000000.0,0.68846,-0.353729
2555000000.0,0.679668,-0.369101
2560000000.0,0.667251,-0.377222
2565000000.0,0.672914,-0.394982
2570000000.0,0.655387,-0.409714
2575000000.0,0.655311,-0.407025
2580000000.0,0.651761,-0.422468
2585000000.0,0.644105,-0.441952
2590000000.0,0.636023,-0.448774
2595000000.0,0.618495,-0.476405
2600000000.0,0.613225,-0.494114
2605000000.0,0.600473,-0.513908
2610000000.0,0.59634,-0.511489
2615000000.0,0.573214,-0.536034
2620000000.0,0.560062,-0.529374
2625000000.0,0.547646,-0.546972
2630000000.0,0.529733,-0.563676
2635000000.0,0.513681,-0.594932
2640000000.0,0.510828,-0.579304
2645000000.0,0.480502,-0.602527
2650000000.0,0.402491,-0.66695
2655000000.0,0.41129,-0.644013
2660000000.0,0.409243,-0.637634
2665000000.0,0.410233,-0.650062
2670000000.0,0.400971,-0.648363
2675000000.0,0.364175,-0.660269
2680000000.0,0.345601,-0.670945
2685000000.0,0.314169,-0.662714
2690000000.0,0.29555,-0.668827
2695000000.0,0.270579,-0.672957
2700000000.0,0.246945,-0.670173
2705000000.0,0.24369,-0.657669
2710000000.0,0.215431,-0.654975
2715000000.0,0.19226,-0.639958
2720000000.0,0.179064,-0.640716
2725000000.0,0.147783,-0.608174
2730000000.0,0.159168,-0.600835
2735000000.0,0.123148,-0.591013
2740000000.0,0.11601,-0.570008
2745000000.0,0.101117,-0.550478
2750000000.0,0.10885,-0.534799
2755000000.0,0.086061,-0.513967
2760000000.0,0.079286,-0.494127
2765000000.0,0.077725,-0.482204
2770000000.0,0.078856,-0.469295
2775000000.0,0.094431,-0.45311
2780000000.0,0.087122,-0.438704
2785000000.0,0.109205,-0.421938
2790000000.0,0.111107,-0.414855
2795000000.0,0.127067,-0.409816
2800000000.0,0.139088,-0.407089
2805000000.0,0.1536,-0.407872
2810000000.0,0.154486,-0.413444
2815000000.0,0.172125,-0.408111
2820000000.0,0.174205,-0.418695
2825000000.0,0.188014,-0.417387
2830000000.0,0.197152,-0.429015
2835000000.0,0.200833,-0.438468
2840000000.0,0.193715,-0.454865
2845000000.0,0.200054,-0.453178
2850000000.0,0.201493,-0.480847
2855000000.0,0.199785,-0.483955
2860000000.0,0.201898,-0.49651
2865000000.0,0.195868,-0.499345
2870000000.0,0.190552,-0.512533
2875000000.0,0.185618,-0.517477
2880000000.0,0.179155,-0.526532
2885000000.0,0.185323,-0.530418
2890000000.0,0.169441,-0.538428
2895000000.0,0.154392,-0.553047
2900000000.0,0.159592,-0.547562
2905000000.0,0.146365,-0.551445
2910000000.0,0.134289,-0.55729
2915000000.0,0.124759,-0.562086
2920000000.0,0.161334,-0.553863
2925000000.0,0.105727,-0.566493
2930000000.0,0.097019,-0.572589
2935000000.0,0.087354,-0.574266
2940000000.0,0.081551,-0.572477
2945000000.0,0.064585,-0.578016
2950000000.0,0.069482,-0.582753
2955000000.0,0.052044,-0.588787
2960000000.0,0.038607,-0.584406
2965000000.0,0.04147,-0.597563
2970000000.0,0.027121,-0.589023
2975000000.0,0.029124,-0.58788
2980000000.0,0.018532,-0.595063
2985000000.0,0.010019,-0.590656
2990000000.0,-0.003795,-0.58535
2995000000.0,-0.015112,-0.593379
3000000000.0,-0.02705,-0.590945
