Frequency (Hz),Real Part,Imaginary Part
1600000000.0,-0.788849,0.51963
1607000000.0,-0.761932,0.555316
1614000000.0,-0.737068,0.592661
1621000000.0,-0.699887,0.627593
1628000000.0,-0.675947,0.658287
1635000000.0,-0.644042,0.686108
1642000000.0,-0.612261,0.713628
1649000000.0,-0.570609,0.745932
1656000000.0,-0.535681,0.765539
1663000000.0,-0.500673,0.792551
1670000000.0,-0.462413,0.810802
1677000000.0,-0.42785,0.833638
1684000000.0,-0.37353,0.856808
1691000000.0,-0.341237,0.871332
1698000000.0,-0.300055,0.881487
1705000000.0,-0.230656,0.902682
1712000000.0,-0.209067,0.905721
1719000000.0,-0.166355,0.916375
1726000000.0,-0.124304,0.921284
1733000000.0,-0.079223,0.922618
1740000000.0,-0.036108,0.928896
1747000000.0,-0.005251,0.922107
1754000000.0,0.050538,0.915327
1761000000.0,0.090668,0.910696
1768000000.0,0.137597,0.898827
1775000000.0,0.166888,0.894948
1782000000.0,0.22103,0.880414
1789000000.0,0.262485,0.866524
1796000000.0,0.301968,0.848485
1803000000.0,0.332632,0.834612
1810000000.0,0.376621,0.813405
1817000000.0,0.40929,0.796528
1824000000.0,0.441873,0.782305
1831000000.0,0.46735,0.762035
1838000000.0,0.518093,0.720238
1845000000.0,0.544318,0.69548
1852000000.0,0.575289,0.659809
1859000000.0,0.604034,0.630252
1866000000.0,0.634026,0.596606
1873000000.0,0.66195,0.561959
1880000000.0,0.689201,0.527572
1887000000.0,0.711105,0.487273
1894000000.0,0.732153,0.456067
1901000000.0,0.751198,0.41785
1908000000.0,0.766331,0.374001
1915000000.0,0.780508,0.334145
1922000000.0,0.787434,0.293293
1929000000.0,0.801298,0.244517
1936000000.0,0.802947,0.207235
1943000000.0,0.81078,0.163348
1950000000.0,0.81108,0.118436
1957000000.0,0.810849,0.074751
1964000000.0,0.804456,0.029279
1971000000.0,0.794195,-0.009146
1978000000.0,0.782936,-0.057668
1985000000.0,0.767565,-0.094371
1992000000.0,0.751976,-0.131424
1999000000.0,0.727168,-0.176748
2006000000.0,0.707821,-0.205801
2013000000.0,0.679681,-0.23595
2020000000.0,0.654571,-0.260314
2027000000.0,0.620923,-0.290713
2034000000.0,0.594103,-0.303346
2041000000.0,0.565826,-0.316254
2048000000.0,0.536079,-0.330235
2055000000.0,0.510769,-0.33897
2062000000.0,0.488512,-0.346301
2069000000.0,0.469882,-0.346528
2076000000.0,0.452143,-0.348685
2083000000.0,0.436203,-0.353515
2090000000.0,0.427004,-0.351394
2097000000.0,0.420519,-0.352916
2104000000.0,0.417116,-0.362959
2111000000.0,0.41262,-0.370918
2118000000.0,0.409291,-0.387461
2125000000.0,0.406458,-0.401491
2132000000.0,0.403017,-0.418183
2139000000.0,0.38513,-0.445546
2146000000.0,0.369923,-0.468197
2153000000.0,0.346519,-0.495176
2160000000.0,0.323661,-0.511964
2167000000.0,0.293778,-0.534096
2174000000.0,0.258684,-0.553278
2181000000.0,0.219223,-0.566653
2188000000.0,0.184863,-0.576371
2195000000.0,0.14688,-0.577933
2202000000.0,0.110337,-0.570843
2209000000.0,0.070871,-0.563515
2216000000.0,0.038723,-0.552146
2223000000.0,0.016852,-0.533353
2230000000.0,-0.011436,-0.513838
2237000000.0,-0.033907,-0.491251
2244000000.0,-0.051283,-0.466373
2251000000.0,-0.066269,-0.442762
2258000000.0,-0.070705,-0.414816
2265000000.0,-0.073462,-0.38932
2272000000.0,-0.068564,-0.363059
2279000000.0,-0.060395,-0.341905
2286000000.0,-0.055768,-0.325083
2293000000.0,-0.047703,-0.311618
2300000000.0,-0.029968,-0.305182
2307000000.0,-0.014527,-0.304468
2314000000.0,0.011842,-0.306043
2321000000.0,0.036836,-0.318204
2328000000.0,0.056585,-0.333805
2335000000.0,0.077471,-0.362587
2342000000.0,0.087769,-0.399942
2349000000.0,0.102918,-0.440969
2356000000.0,0.089284,-0.486457
2363000000.0,0.067895,-0.531795
2370000000.0,0.037775,-0.578196
2377000000.0,-0.00696,-0.614441
2384000000.0,-0.057488,-0.644685
2391000000.0,-0.100909,-0.669136
2398000000.0,-0.165417,-0.679055
2405000000.0,-0.23274,-0.689561
2412000000.0,-0.288549,-0.689092
2419000000.0,-0.348586,-0.673183
2426000000.0,-0.401552,-0.654303
2433000000.0,-0.455034,-0.628029
2440000000.0,-0.507287,-0.600953
2447000000.0,-0.553131,-0.57215
2454000000.0,-0.586945,-0.538635
2461000000.0,-0.62537,-0.49301
2468000000.0,-0.657705,-0.456548
2475000000.0,-0.686066,-0.418376
2482000000.0,-0.712548,-0.364098
2489000000.0,-0.730382,-0.319392
2496000000.0,-0.749986,-0.265102
2503000000.0,-0.761806,-0.233207
2510000000.0,-0.769525,-0.174977
2517000000.0,-0.7751,-0.138384
2524000000.0,-0.778098,-0.074761
2531000000.0,-0.778005,-0.034456
2538000000.0,-0.77304,0.021843
2545000000.0,-0.764943,0.057293
2552000000.0,-0.75406,0.104087
2559000000.0,-0.73372,0.160807
2566000000.0,-0.717275,0.184521
2573000000.0,-0.688287,0.247503
2580000000.0,-0.667907,0.273535
2587000000.0,-0.626555,0.314371
2594000000.0,-0.600973,0.334568
2601000000.0,-0.562065,0.365476
2608000000.0,-0.523864,0.380744
2615000000.0,-0.485016,0.395
2622000000.0,-0.44229,0.40557
2629000000.0,-0.40788,0.406109
2636000000.0,-0.370112,0.402632
2643000000.0,-0.333117,0.391006
2650000000.0,-0.312808,0.379389
2657000000.0,-0.292152,0.373682
2664000000.0,-0.284679,0.358889
2671000000.0,-0.276353,0.347062
2678000000.0,-0.268385,0.340586
2685000000.0,-0.265253,0.335527
2692000000.0,-0.262734,0.331946
2699000000.0,-0.268227,0.327688
2706000000.0,-0.278977,0.328471
2713000000.0,-0.281381,0.336495
2720000000.0,-0.292753,0.343095
2727000000.0,-0.296135,0.351225
2734000000.0,-0.303113,0.366473
2741000000.0,-0.300981,0.383235
2748000000.0,-0.296655,0.40587
2755000000.0,-0.298538,0.421516
2762000000.0,-0.29276,0.445307
2769000000.0,-0.276467,0.472516
2776000000.0,-0.256176,0.493848
2783000000.0,-0.237784,0.519107
2790000000.0,-0.208902,0.540436
2797000000.0,-0.183286,0.567238
2804000000.0,-0.16065,0.58893
2811000000.0,-0.122987,0.610443
2818000000.0,-0.098736,0.625509
2825000000.0,-0.069743,0.638114
2832000000.0,-0.03602,0.650167
2839000000.0,-0.009135,0.655254
2846000000.0,-0.001915,0.655897
2853000000.0,0.065266,0.650589
2860000000.0,0.058829,0.657297
2867000000.0,0.12596,0.636005
2874000000.0,0.16438,0.630864
2881000000.0,0.198008,0.619762
2888000000.0,0.228466,0.59978
2895000000.0,0.257501,0.586584
2902000000.0,0.276546,0.574786
2909000000.0,0.30514,0.559807
2916000000.0,0.331764,0.535646
2923000000.0,0.353176,0.521053
2930000000.0,0.381535,0.498975
2937000000.0,0.395,0.482538
2944000000.0,0.41596,0.462769
2951000000.0,0.430137,0.442611
2958000000.0,0.444058,0.425589
2965000000.0,0.459819,0.400777
2972000000.0,0.46949,0.381712
2979000000.0,0.485524,0.360473
2986000000.0,0.507001,0.325569
2993000000.0,0.513259,0.305596
3000000000.0,0.523284,0.283749
