Frequency (Hz),Real Part,Imaginary Part
1600000000.0,-0.782305,0.52726
1607000000.0,-0.766835,0.554093
1614000000.0,-0.739072,0.588496
1621000000.0,-0.714217,0.620228
1628000000.0,-0.678381,0.653941
1635000000.0,-0.646098,0.684803
1642000000.0,-0.607673,0.711101
1649000000.0,-0.567435,0.743071
1656000000.0,-0.534058,0.767331
1663000000.0,-0.501251,0.788149
1670000000.0,-0.457173,0.814594
1677000000.0,-0.422751,0.83241
1684000000.0,-0.380183,0.846518
1691000000.0,-0.337024,0.870487
1698000000.0,-0.299899,0.884822
1705000000.0,-0.247355,0.899254
1712000000.0,-0.203726,0.907018
1719000000.0,-0.166219,0.912671
1726000000.0,-0.12105,0.920899
1733000000.0,-0.084683,0.923115
1740000000.0,-0.031417,0.925314
1747000000.0,0.007039,0.922734
1754000000.0,0.057832,0.916027
1761000000.0,0.094944,0.908228
1768000000.0,0.135993,0.90431
1775000000.0,0.193054,0.886332
1782000000.0,0.213224,0.881486
1789000000.0,0.258388,0.867235
1796000000.0,0.299959,0.845911
1803000000.0,0.345637,0.827251
1810000000.0,0.384212,0.808691
1817000000.0,0.418994,0.790061
1824000000.0,0.4527,0.776223
1831000000.0,0.490651,0.738711
1838000000.0,0.517634,0.716659
1845000000.0,0.556404,0.683404
1852000000.0,0.582215,0.659765
1859000000.0,0.605465,0.622777
1866000000.0,0.630885,0.590949
1873000000.0,0.658775,0.556113
1880000000.0,0.687786,0.5158
1887000000.0,0.710928,0.483593
1894000000.0,0.73155,0.440958
1901000000.0,0.752938,0.401332
1908000000.0,0.763878,0.353433
1915000000.0,0.778426,0.313514
1922000000.0,0.783507,0.272446
1929000000.0,0.791003,0.2312
1936000000.0,0.793674,0.180608
1943000000.0,0.797784,0.144508
1950000000.0,0.798628,0.105466
1957000000.0,0.795132,0.065823
1964000000.0,0.782763,0.019451
1971000000.0,0.767395,-0.023082
1978000000.0,0.756489,-0.062384
1985000000.0,0.741097,-0.098988
1992000000.0,0.72437,-0.131031
1999000000.0,0.698488,-0.174856
2006000000.0,0.674166,-0.203433
2013000000.0,0.647453,-0.228711
2020000000.0,0.622043,-0.24423
2027000000.0,0.594785,-0.262898
2034000000.0,0.56702,-0.274703
2041000000.0,0.543359,-0.280188
2048000000.0,0.521115,-0.291805
2055000000.0,0.502715,-0.292263
2062000000.0,0.484732,-0.299637
2069000000.0,0.47397,-0.300532
2076000000.0,0.464558,-0.305213
2083000000.0,0.45923,-0.310582
2090000000.0,0.45398,-0.319126
2097000000.0,0.456408,-0.330096
2104000000.0,0.455458,-0.344918
2111000000.0,0.451508,-0.367207
2118000000.0,0.446575,-0.387344
2125000000.0,0.435197,-0.416591
2132000000.0,0.421898,-0.443841
2139000000.0,0.400944,-0.472215
2146000000.0,0.379235,-0.494304
2153000000.0,0.349139,-0.51633
2160000000.0,0.309403,-0.533384
2167000000.0,0.275384,-0.550026
2174000000.0,0.230955,-0.561232
2181000000.0,0.193467,-0.566581
2188000000.0,0.149155,-0.566028
2195000000.0,0.111433,-0.558623
2202000000.0,0.078869,-0.542034
2209000000.0,0.049445,-0.521959
2216000000.0,0.027495,-0.501261
2223000000.0,0.001398,-0.477676
2230000000.0,-0.013619,-0.452023
2237000000.0,-0.01689,-0.426711
2244000000.0,-0.024101,-0.399701
2251000000.0,-0.028219,-0.374397
2258000000.0,-0.016006,-0.349268
2265000000.0,-0.002888,-0.328039
2272000000.0,0.018016,-0.31204
2279000000.0,0.035705,-0.30325
2286000000.0,0.05981,-0.300946
2293000000.0,0.077375,-0.309337
2300000000.0,0.101978,-0.325393
2307000000.0,0.116409,-0.352227
2314000000.0,0.135006,-0.385959
2321000000.0,0.15061,-0.419484
2328000000.0,0.15589,-0.45842
2335000000.0,0.143446,-0.508854
2342000000.0,0.124564,-0.558311
2349000000.0,0.091537,-0.602601
2356000000.0,0.059725,-0.640233
2363000000.0,0.101131,-0.670617
2370000000.0,-0.04018,-0.694377
2377000000.0,-0.104168,-0.713274
2384000000.0,-0.158297,-0.721497
2391000000.0,-0.203403,-0.731632
2398000000.0,-0.279951,-0.714588
2405000000.0,-0.331439,-0.705554
2412000000.0,-0.383743,-0.693879
2419000000.0,-0.442057,-0.668404
2426000000.0,-0.492568,-0.637001
2433000000.0,-0.531326,-0.60811
2440000000.0,-0.570984,-0.582406
2447000000.0,-0.608819,-0.548847
2454000000.0,-0.643367,-0.499919
2461000000.0,-0.676583,-0.453298
2468000000.0,-0.656927,-0.501436
2475000000.0,-0.727454,-0.366179
2482000000.0,-0.743686,-0.328659
2489000000.0,-0.757587,-0.27059
2496000000.0,-0.771779,-0.214353
2503000000.0,-0.776436,-0.1771
2510000000.0,-0.780172,-0.144103
2517000000.0,-0.781881,-0.089831
2524000000.0,-0.782402,-0.040559
2531000000.0,-0.77203,0.00653
2538000000.0,-0.761193,0.063226
2545000000.0,-0.749703,0.099208
2552000000.0,-0.728535,0.145577
2559000000.0,-0.707618,0.186376
2566000000.0,-0.679007,0.2358
2573000000.0,-0.65592,0.261226
2580000000.0,-0.618715,0.29555
2587000000.0,-0.581919,0.31905
2594000000.0,-0.545175,0.342146
2601000000.0,-0.504335,0.362511
2608000000.0,-0.468225,0.365675
2615000000.0,-0.423864,0.371547
2622000000.0,-0.395174,0.366574
2629000000.0,-0.366304,0.358485
2636000000.0,-0.335992,0.350063
2643000000.0,-0.322214,0.335875
2650000000.0,-0.307167,0.326988
2657000000.0,-0.302469,0.31705
2664000000.0,-0.303664,0.308711
2671000000.0,-0.309456,0.29651
2678000000.0,-0.307151,0.301821
2685000000.0,-0.303971,0.307902
2692000000.0,-0.311408,0.310531
2699000000.0,-0.317903,0.314733
2706000000.0,-0.326641,0.322029
2713000000.0,-0.340602,0.330725
2720000000.0,-0.339796,0.352821
2727000000.0,-0.345567,0.368202
2734000000.0,-0.343454,0.392044
2741000000.0,-0.340237,0.418621
2748000000.0,-0.334592,0.438281
2755000000.0,-0.392198,0.415777
2762000000.0,-0.31137,0.484345
2769000000.0,-0.290216,0.514233
2776000000.0,-0.261446,0.538519
2783000000.0,-0.237551,0.559081
2790000000.0,-0.206826,0.580897
2797000000.0,-0.178793,0.604513
2804000000.0,-0.143976,0.623699
2811000000.0,-0.114209,0.639311
2818000000.0,-0.086241,0.654719
2825000000.0,-0.028416,0.661405
2832000000.0,-0.009344,0.665928
2839000000.0,0.021499,0.661544
2846000000.0,0.042941,0.668045
2853000000.0,0.082059,0.664724
2860000000.0,0.122881,0.653879
2867000000.0,0.150275,0.636955
2874000000.0,0.194024,0.627217
2881000000.0,0.220582,0.614586
2888000000.0,0.249168,0.597079
2895000000.0,0.273641,0.58288
2902000000.0,0.294837,0.5692
2909000000.0,0.327313,0.547839
2916000000.0,0.339856,0.530804
2923000000.0,0.373529,0.509275
2930000000.0,0.385109,0.491943
2937000000.0,0.40577,0.471937
2944000000.0,0.426214,0.447754
2951000000.0,0.43673,0.436829
2958000000.0,0.446495,0.420793
2965000000.0,0.464304,0.393835
2972000000.0,0.475791,0.369745
2979000000.0,0.485431,0.354763
2986000000.0,0.499691,0.325436
2993000000.0,0.516496,0.299312
3000000000.0,0.526461,0.270367
