Freq (Hz),s21avg
1600000000.0,-0.15104681814526852
1601401401.4014015,-0.15099762364789593
1602802802.8028028,-0.15094842915052323
1604204204.2042043,-0.1508992346531506
1605605605.6056056,-0.15323021600313735
1607007007.0070071,-0.15842890122654413
1608408408.4084084,-0.16362758644995012
1609809809.80981,-0.16882627167335681
1611211211.2112112,-0.17402495689676287
1612612612.6126127,-0.17508940475218926
1614014014.014014,-0.1712721977763162
1615415415.4154155,-0.1674549908004427
1616816816.8168168,-0.1636377838245699
1618218218.2182183,-0.1598205768486963
1619619619.6196196,-0.15811697532279384
1621021021.0210211,-0.15885937453820623
1622422422.4224224,-0.15960177375361873
1623823823.823824,-0.16034417296903125
1625225225.2252252,-0.16108657218444372
1626626626.6266267,-0.16276615066678032
1628028028.028028,-0.1655087190571449
1629429429.4294295,-0.1682512874475101
1630830830.8308308,-0.1709938558378748
1632232232.2322323,-0.1737364242282399
1633633633.6336336,-0.17641516002257318
1635035035.0350351,-0.17902293251803528
1636436436.4364364,-0.1816307050134968
1637837837.837838,-0.1842384775089589
1639239239.2392392,-0.1868462500044204
1640640640.6406407,-0.1869566514211032
1642042042.042042,-0.18434580291817684
1643443443.4434435,-0.18173495441525012
1644844844.8448448,-0.17912410591232375
1646246246.2462463,-0.17651325740939686
1647647647.6476476,-0.17598246391722686
1649049049.0490491,-0.17767324918693297
1650450450.4504504,-0.17936403445663884
1651851851.851852,-0.18105481972634505
1653253253.2532532,-0.18274560499605078
1654654654.6546547,-0.18408300092989294
1656056056.056056,-0.18505044296786394
1657457457.4574575,-0.18601788500583516
1658858858.8588588,-0.1869853270438062
1660260260.2602603,-0.18795276908177752
1661661661.6616616,-0.1873524402854915
1663063063.0630631,-0.18514336356293754
1664464464.4644644,-0.18293428684038404
1665865865.865866,-0.18072521011783
1667267267.2672672,-0.17851613339527653
1668668668.6686687,-0.17916259391420244
1670070070.07007,-0.1826812019604371
1671471471.4714715,-0.18619981000667227
1672872872.8728728,-0.1897184180529069
1674274274.2742743,-0.19323702609914217
1675675675.6756756,-0.19450961502616665
1677077077.0770772,-0.19356785345824143
1678478478.4784784,-0.19262609189031657
1679879879.87988,-0.19168433032239146
1681281281.2812812,-0.19074256875446646
1682682682.6826828,-0.18941182705465362
1684084084.084084,-0.18770518468466832
1685485485.4854856,-0.18599854231468296
1686886886.8868868,-0.18429189994469766
1688288288.2882884,-0.18258525757471214
1689689689.6896896,-0.1851298517472355
1691091091.0910912,-0.1917013449872378
1692492492.4924924,-0.19827283822723904
1693893893.893894,-0.2048443314672414
1695295295.2952952,-0.21141582470724252
1696696696.6966968,-0.212116164740014
1698098098.098098,-0.20736540707416293
1699499499.4994996,-0.2026146494083109
1700900900.9009008,-0.1978638917424598
1702302302.3023024,-0.1931131340766078
1703703703.7037036,-0.1921820559965742
1705105105.1051052,-0.19472702860637534
1706506506.5065064,-0.19727200121617597
1707907907.907908,-0.19981697382597707
1709309309.3093092,-0.20236194643577768
1710710710.7107108,-0.20498710457996633
1712112112.112112,-0.2076837857024667
1713513513.5135136,-0.21038046682496772
1714914914.9149148,-0.21307714794746802
1716316316.3163164,-0.215773829069969
1717717717.7177176,-0.21673363475084984
1719119119.1191192,-0.21617499689364914
1720520520.5205204,-0.21561635903644835
1721921921.921922,-0.21505772117924768
1723323323.3233232,-0.21449908332204695
1724724724.7247248,-0.21566486631378512
1726126126.126126,-0.21830819828099984
1727527527.5275276,-0.2209515302482151
1728928928.9289289,-0.22359486221542962
1730330330.3303304,-0.2262381941826448
1731731731.7317317,-0.2267274407825208
1733133133.1331332,-0.225407778789035
1734534534.5345345,-0.22408811679554957
1735935935.935936,-0.22276845480206361
1737337337.3373373,-0.22144879280857793
1738738738.7387388,-0.2223703666440176
1740140140.14014,-0.22513645039645305
1741541541.5415416,-0.2279025341488887
1742942942.9429429,-0.23066861790132415
1744344344.3443444,-0.23343470165376
1745745745.7457457,-0.23565548628261052
1747147147.1471472,-0.23743647542103666
1748548548.5485485,-0.23921746455946258
1749949949.94995,-0.24099845369788894
1751351351.3513513,-0.24277944283631492
1752752752.7527528,-0.2447499697690674
1754154154.154154,-0.24687029790011003
1755555555.5555556,-0.24899062603115305
1756956956.9569569,-0.25111095416219575
1758358358.3583584,-0.25323128229323877
1759759759.75976,-0.2547456800161413
1761161161.1611612,-0.25579080557750866
1762562562.5625625,-0.2568359311388761
1763963963.963964,-0.25788105670024364
1765365365.3653655,-0.25892618226161124
1766766766.7667668,-0.261484600496601
1768168168.168168,-0.2651913964011609
1769569569.5695696,-0.26889819230572143
1770970970.970971,-0.2726049882102819
1772372372.3723724,-0.2763117841148416
1773773773.7737737,-0.27656047798532574
1775175175.1751752,-0.2742379790872073
1776576576.5765767,-0.2719154801890888
1777977977.977978,-0.2695929812909708
1779379379.3793793,-0.26727048239285284
1780780780.7807808,-0.2684833078845594
1782182182.1821823,-0.2722714725242946
1783583583.5835836,-0.2760596371640292
1784984984.9849849,-0.2798478018037638
1786386386.3863864,-0.28363596644349903
1787787787.787788,-0.2870506118830268
1789189189.1891892,-0.29019869563816303
1790590590.5905905,-0.2933467793932993
1791991991.991992,-0.2964948631484362
1793393393.3933935,-0.29964294690357307
1794794794.7947948,-0.3034194523623195
1796196196.196196,-0.3076352817696694
1797597597.5975976,-0.3118511111770199
1798998998.998999,-0.31606694058437035
1800400400.4004004,-0.32028276999172045
1801801801.8018017,-0.3220942666313966
1803203203.2032032,-0.32225932901377197
1804604604.6046047,-0.32242439139614715
1806006006.006006,-0.32258945377852244
1807407407.4074075,-0.3227545161608977
1808808808.8088088,-0.3231312717106624
1810210210.2102103,-0.3236500107572921
1811611611.6116116,-0.3241687498039215
1813013013.0130131,-0.3246874888505513
1814414414.4144144,-0.3252062278971807
1815815815.815816,-0.3285142897478243
1817217217.2172172,-0.3336545560979303
1818618618.6186187,-0.3387948224480373
1820020020.02002,-0.3439350887981433
1821421421.4214215,-0.3490753551482502
1822822822.8228228,-0.35322738403522197
1824224224.2242243,-0.35674372882895
1825625625.6256256,-0.3602600736226772
1827027027.0270271,-0.3637764184164051
1828428428.4284284,-0.3672927632101324
1829829829.82983,-0.37002959526561396
1831231231.2312312,-0.3722754441938928
1832632632.6326327,-0.37452129312217197
1834034034.034034,-0.37676714205045037
1835435435.4354355,-0.3790129909787298
1836836836.8368368,-0.3813846382396906
1838238238.2382383,-0.38383386334238095
1839639639.6396396,-0.3862830884450706
1841041041.0410411,-0.3887323135477609
1842442442.4424424,-0.3911815386504511
1843843843.843844,-0.3941378546291889
1845245245.2452452,-0.3974003118320271
1846646646.6466467,-0.40066276903486586
1848048048.048048,-0.4039252262377041
1849449449.4494495,-0.407187683440543
1850850850.8508508,-0.41169825281125144
1852252252.2522523,-0.41694641070277055
1853653653.6536536,-0.42219456859428917
1855055055.0550551,-0.42744272648580867
1856456456.4564564,-0.4326908843773274
1857857857.857858,-0.4377310573184808
1859259259.2592592,-0.44265093022796825
1860660660.6606607,-0.4475708031374567
1862062062.062062,-0.452490676046944
1863463463.4634635,-0.457410548956432
1864864864.8648648,-0.46130417860976086
1866266266.2662663,-0.4646169052407136
1867667667.6676676,-0.46792963187166586
1869069069.0690691,-0.47124235850261875
1870470470.4704704,-0.4745550851335706
1871871871.871872,-0.4774895414071495
1873273273.2732732,-0.4802144809860093
1874674674.6746747,-0.4829394205648702
1876076076.076076,-0.4856643601437296
1877477477.4774776,-0.4883892997225903
1878878878.8788788,-0.4944113327758473
1880280280.2802804,-0.5022200646211444
1881681681.6816816,-0.5100287964664405
1883083083.0830832,-0.5178375283117377
1884484484.4844844,-0.5256462601570339
1885885885.885886,-0.5331450001956072
1887287287.2872872,-0.5404794120856992
1888688688.6886888,-0.5478138239757927
1890090090.09009,-0.5551482358658845
1891491491.4914916,-0.5624826477559777
1892892892.8928928,-0.5670218065536357
1894294294.2942944,-0.5701116613221211
1895695695.6956956,-0.573201516090606
1897097097.0970972,-0.5762913708590915
1898498498.4984984,-0.5793812256275765
1899899899.8999,-0.5838774937624125
1901301301.3013012,-0.5890868773777818
1902702702.7027028,-0.594296260993152
1904104104.104104,-0.5995056446085211
1905505505.5055056,-0.6047150282238914
1906906906.9069068,-0.6114667098123612
1908308308.3083084,-0.6189830233104641
1909709709.7097096,-0.6264993368085657
1911111111.1111112,-0.6340156503066681
1912512512.5125124,-0.6415319638047695
1913913913.913914,-0.6531103067860705
1915315315.3153152,-0.6666573967420407
1916716716.7167168,-0.6802044866980129
1918118118.1181183,-0.6937515766539856
1919519519.5195196,-0.7072986666099554
1920920920.9209208,-0.7155029116947713
1922322322.3223224,-0.72117608687489
1923723723.723724,-0.726849262055009
1925125125.1251252,-0.7325224372351271
1926526526.5265265,-0.7381956124152446
1927927927.927928,-0.7447584823268063
1929329329.3293295,-0.751733237100873
1930730730.7307308,-0.7587079918749382
1932132132.132132,-0.7656827466490032
1933533533.5335336,-0.77265750142307
1934934934.934935,-0.7840203881317658
1936336336.3363364,-0.7973681469500228
1937737737.7377377,-0.8107159057682806
1939139139.1391392,-0.8240636645865407
1940540540.5405407,-0.8374114234047998
1941941941.941942,-0.8495160669554745
1943343343.3433433,-0.8610714311841801
1944744744.7447448,-0.872626795412888
1946146146.1461463,-0.884182159641596
1947547547.5475476,-0.8957375238703024
1948948948.9489489,-0.9069015173228523
1950350350.3503504,-0.9178966199007736
1951751751.751752,-0.9288917224786956
1953153153.1531532,-0.9398868250566156
1954554554.5545545,-0.9508819276345362
1955955955.955956,-0.9675403156080048
1957357357.3573575,-0.9865850029994405
1958758758.7587588,-1.0056296903908732
1960160160.16016,-1.0246743777823053
1961561561.5615616,-1.043719065173741
1962962962.962963,-1.057863681919012
1964364364.3643644,-1.069992737885473
1965765765.7657657,-1.0821217938519334
1967167167.1671672,-1.0942508498183967
1968568568.5685687,-1.1063799057848593
1969969969.96997,-1.1230251774912399
1971371371.3713713,-1.1414834545913541
1972772772.7727728,-1.159941731691472
1974174174.1741743,-1.1784000087915902
1975575575.5755756,-1.1968582858917045
1976976976.9769769,-1.220159688392675
1978378378.3783784,-1.245358102436439
1979779779.77978,-1.2705565164802024
1981181181.1811812,-1.2957549305239622
1982582582.5825825,-1.3209533445677217
1983983983.983984,-1.3429653186168682
1985385385.3853855,-1.363759835217999
1986786786.7867868,-1.3845543518191272
1988188188.188188,-1.405348868420255
1989589589.5895896,-1.4261433850213854
1990990990.990991,-1.4496608690773354
1992392392.3923924,-1.4741929019159448
1993793793.7937937,-1.4987249347545546
1995195195.1951952,-1.5232569675931686
1996596596.5965967,-1.5477890004317816
1997997997.997998,-1.576826751060834
1999399399.3993993,-1.6075011297387747
2000800800.8008008,-1.6381755084167196
2002202202.2022023,-1.6688498870946646
2003603603.6036036,-1.6995242657726057
2005005005.0050051,-1.729540455173616
2006406406.4064064,-1.759323642629657
2007807807.807808,-1.789106830085702
2009209209.2092092,-1.8188900175417408
2010610610.6106107,-1.8486732049977865
2012012012.012012,-1.883351288922397
2013413413.4134135,-1.9197176200386818
2014814814.8148148,-1.956083951154962
2016216216.2162163,-1.9924502822712455
2017617617.6176176,-2.028816613387526
2019019019.0190191,-2.0652337630631354
2020420420.4204204,-2.1016679835112213
2021821821.821822,-2.138102203959314
2023223223.2232232,-2.1745364244074
2024624624.6246247,-2.2109706448554918
2026026026.026026,-2.2462610849777693
2027427427.4274275,-2.2811774495094523
2028828828.8288288,-2.3160938140411313
2030230230.2302303,-2.3510101785728144
2031631631.6316316,-2.3859265431044925
2033033033.0330331,-2.4255929193444445
2034434434.4344344,-2.466771246447171
2035835835.835836,-2.507949573549904
2037237237.2372372,-2.549127900652627
2038638638.6386387,-2.590306227755361
2040040040.04004,-2.6292516667539356
2041441441.4414415,-2.66750564299012
2042842842.8428428,-2.705759619226298
2044244244.2442443,-2.744013595462485
2045645645.6456456,-2.7822675716986636
2047047047.0470471,-2.8197193946761403
2048448448.4484484,-2.8569296479812034
2049849849.84985,-2.8941399012862705
2051251251.2512512,-2.9313501545913336
2052652652.6526527,-2.9685604078964025
2054054054.054054,-3.008165144879311
2055455455.4554555,-3.048470846025947
2056856856.8568568,-3.088776547172577
2058258258.2582583,-3.129082248319213
2059659659.6596596,-3.169387949465846
2061061061.0610611,-3.2035591439894926
2062462462.4624624,-3.2359854454533945
2063863863.863864,-3.268411746917306
2065265265.2652652,-3.300838048381209
2066666666.6666667,-3.3332643498451175
2068068068.068068,-3.3669506573816856
2069469469.4694695,-3.4009850324499142
2070870870.8708708,-3.4350194075181406
2072272272.2722723,-3.46905378258637
2073673673.6736736,-3.5030881576545925
2075075075.0750751,-3.5332414552715217
2076476476.4764764,-3.5623540404072083
2077877877.877878,-3.5914666255429033
2079279279.2792792,-3.6205792106785926
2080680680.6806808,-3.6496917958142854
2082082082.082082,-3.6735147439891587
2083483483.4834836,-3.695961539999002
2084884884.8848848,-3.7184083360088436
2086286286.2862864,-3.74085513201869
2087687687.6876876,-3.7633019280285307
2089089089.0890892,-3.785533010741627
2090490490.4904904,-3.80770967551767
2091891891.891892,-3.829886340293715
2093293293.2932935,-3.8520630050697635
2094694694.6946948,-3.874239669845808
2096096096.096096,-3.889544511632449
2097497497.4974976,-3.903169346417329
2098898898.898899,-3.916794181202208
2100300300.3003004,-3.9304190159870855
2101701701.7017016,-3.9440438507719646
2103103103.1031032,-3.95281908496003
2104504504.5045047,-3.960446021536003
2105905905.905906,-3.9680729581119722
2107307307.3073072,-3.975699894687944
2108708708.7087088,-3.9833268312639145
2110110110.1101103,-3.989837746853183
2111511511.5115116,-3.996092891914547
2112912912.9129128,-4.00234803697591
2114314314.3143144,-4.008603182037277
2115715715.715716,-4.014858327098641
2117117117.1171172,-4.018399154860542
2118518518.5185184,-4.021338293203362
2119919919.91992,-4.024277431546181
2121321321.3213215,-4.027216569889
2122722722.7227228,-4.030155708231824
2124124124.124124,-4.031753253834673
2125525525.5255256,-4.033063356004867
2126926926.926927,-4.034373458175059
2128328328.3283284,-4.035683560345253
2129729729.7297297,-4.036993662515445
2131131131.1311312,-4.033712520392035
2132532532.5325327,-4.029481322346665
2133933933.933934,-4.0252501243012935
2135335335.3353353,-4.021018926255929
2136736736.7367368,-4.016787728210562
2138138138.1381383,-4.013819917466687
2139539539.5395396,-4.011104390108734
2140940940.9409409,-4.008388862750786
2142342342.3423424,-4.005673335392833
2143743743.743744,-4.002957808034879
2145145145.1451452,-4.003115756509097
2146546546.5465465,-4.003826948884218
2147947947.947948,-4.00453814125934
2149349349.3493495,-4.005249333634463
2150750750.7507505,-4.005960526009585
2152152152.152152,-4.009535450591488
2153553553.5535536,-4.013641500659433
2154954954.954955,-4.017747550727384
2156356356.3563566,-4.0218536007953265
2157757757.7577577,-4.025959650863273
2159159159.159159,-4.026432463924116
2160560560.5605607,-4.026256813435697
2161961961.9619617,-4.0260811629472775
2163363363.3633633,-4.02590551245886
2164764764.764765,-4.025729861970442
2166166166.1661663,-4.031842212446011
2167567567.567568,-4.039033442590228
2168968968.968969,-4.046224672734446
2170370370.3703704,-4.053415902878664
2171771771.771772,-4.060607133022883
2173173173.173173,-4.072777388529772
2174574574.5745745,-4.085767961010109
2175975975.975976,-4.098758533490448
2177377377.3773775,-4.1117491059707865
2178778778.778779,-4.124739678451124
2180180180.18018,-4.135950998806053
2181581581.5815816,-4.1468811785756
2182982982.982983,-4.15781135834515
2184384384.384384,-4.168741538114694
2185785785.7857857,-4.179671717884242
2187187187.187187,-4.195854450876439
2188588588.5885887,-4.212832127304386
2189989989.98999,-4.229809803732332
2191391391.3913913,-4.246787480160273
2192792792.792793,-4.263765156588218
2194194194.1941943,-4.2771305637999175
2195595595.5955954,-4.289973080000917
2196996996.996997,-4.3028155962019214
2198398398.3983984,-4.315658112402925
2199799799.7998,-4.328500628603931
2201201201.2012014,-4.35909852590054
2202602602.6026025,-4.392150911881976
2204004004.004004,-4.42520329786342
2205405405.4054055,-4.458255683844864
2206806806.8068066,-4.491308069826298
2208208208.208208,-4.512798510792174
2209609609.6096096,-4.53276511213713
2211011011.011011,-4.5527317134820855
2212412412.4124126,-4.5726983148270435
2213813813.8138137,-4.592664916171991
2215215215.215215,-4.619604787057188
2216616616.6166167,-4.647419308654508
2218018018.018018,-4.675233830251823
2219419419.4194193,-4.703048351849146
2220820820.820821,-4.730862873446469
2222222222.2222223,-4.765065583129191
2223623623.623624,-4.8000293275852215
2225025025.025025,-4.834993072041244
2226426426.4264264,-4.869956816497273
2227827827.827828,-4.904920560953308
2229229229.2292295,-4.937675453043578
2230630630.6306305,-4.970180956593959
2232032032.032032,-5.002686460144352
2233433433.4334335,-5.035191963694746
2234834834.834835,-5.067697467245142
2236236236.2362366,-5.103381864998862
2237637637.6376376,-5.139405595767799
2239039039.039039,-5.175429326536748
2240440440.4404407,-5.2114530573056985
2241841841.8418417,-5.247476788074633
2243243243.243243,-5.284404516363927
2244644644.6446447,-5.32142323642388
2246046046.0460463,-5.358441956483833
2247447447.447448,-5.395460676543786
2248848848.848849,-5.432479396603726
2250250250.2502503,-5.47377479989829
2251651651.651652,-5.515474909301589
2253053053.053053,-5.557175018704875
2254454454.4544544,-5.598875128108173
2255855855.855856,-5.640575237511469
2257257257.2572575,-5.684332553731869
2258658658.658659,-5.728272287344081
2260060060.06006,-5.77221202095628
2261461461.4614615,-5.816151754568494
2262862862.862863,-5.860091488180707
2264264264.264264,-5.903475433943726
2265665665.6656656,-5.946813372472636
2267067067.067067,-5.990151311001551
2268468468.4684687,-6.033489249530464
2269869869.86987,-6.076827188059376
2271271271.271271,-6.122374369034755
2272672672.6726727,-6.168091546642315
2274074074.0740743,-6.213808724249873
2275475475.4754753,-6.259525901857419
2276876876.876877,-6.305243079464978
2278278278.2782784,-6.351899982382881
2279679679.67968,-6.398623774858788
2281081081.0810814,-6.44534756733469
2282482482.4824824,-6.492071359810576
2283883883.883884,-6.538795152286481
2285285285.2852855,-6.586132182825832
2286686686.6866865,-6.633509364107271
2288088088.088088,-6.680886545388719
2289489489.4894896,-6.728263726670171
2290890890.890891,-6.775640907951622
2292292292.2922926,-6.825889663600758
2293693693.6936936,-6.876310217642172
2295095095.095095,-6.926730771683603
2296496496.4964967,-6.977151325725035
2297897897.8978977,-7.027571879766446
2299299299.2992992,-7.075136189418616
2300700700.7007008,-7.122545574423876
2302102102.1021023,-7.169954959429135
2303503503.503504,-7.2173643444343885
2304904904.904905,-7.264773729439634
2306306306.3063064,-7.311894294875869
2307707707.707708,-7.359000791129603
2309109109.109109,-7.406107287383313
2310510510.5105104,-7.4532137836370405
2311911911.911912,-7.500320279890771
2313313313.3133135,-7.542680679557608
2314714714.714715,-7.584835846629877
2316116116.116116,-7.626991013702133
2317517517.5175176,-7.669146180774396
2318918918.918919,-7.711301347846663
2320320320.32032,-7.743140216320597
2321721721.7217216,-7.774588830958305
2323123123.123123,-7.8060374455960115
2324524524.5245247,-7.8374860602337195
2325925925.925926,-7.868934674871428
2327327327.3273273,-7.89132667099849
