Frequency (Hz),Real Part,Imaginary Part
1600000000.0,-0.784781,0.525226
1607000000.0,-0.760524,0.558562
1614000000.0,-0.73686,0.591493
1621000000.0,-0.707288,0.620809
1628000000.0,-0.675737,0.655754
1635000000.0,-0.640621,0.689687
1642000000.0,-0.603436,0.720249
1649000000.0,-0.563404,0.744632
1656000000.0,-0.527948,0.768057
1663000000.0,-0.490352,0.794639
1670000000.0,-0.45482,0.814796
1677000000.0,-0.41459,0.833567
1684000000.0,-0.370984,0.852176
1691000000.0,-0.324639,0.872208
1698000000.0,-0.285171,0.884086
1705000000.0,-0.245839,0.893486
1712000000.0,-0.203106,0.906309
1719000000.0,-0.154847,0.915641
1726000000.0,-0.118239,0.914549
1733000000.0,-0.077972,0.919759
1740000000.0,-0.03494,0.919876
1747000000.0,0.018363,0.919007
1754000000.0,0.059358,0.909899
1761000000.0,0.102346,0.905248
1768000000.0,0.145516,0.892968
1775000000.0,0.184735,0.88512
1782000000.0,0.22112,0.875298
1789000000.0,0.263518,0.85969
1796000000.0,0.303982,0.841199
1803000000.0,0.314078,0.838916
1810000000.0,0.382426,0.804252
1817000000.0,0.42215,0.784568
1824000000.0,0.453762,0.76743
1831000000.0,0.496012,0.734549
1838000000.0,0.525871,0.702066
1845000000.0,0.558056,0.675836
1852000000.0,0.588494,0.644928
1859000000.0,0.614699,0.612221
1866000000.0,0.633112,0.582559
1873000000.0,0.664552,0.540288
1880000000.0,0.687464,0.5054
1887000000.0,0.713243,0.460664
1894000000.0,0.763527,0.353886
1901000000.0,0.74924,0.383478
1908000000.0,0.758151,0.334437
1915000000.0,0.768794,0.293907
1922000000.0,0.772399,0.246185
1929000000.0,0.782914,0.199184
1936000000.0,0.778584,0.163911
1943000000.0,0.776989,0.119143
1950000000.0,0.7697,0.074393
1957000000.0,0.761696,0.029849
1964000000.0,0.746661,-0.008265
1971000000.0,0.725761,-0.049034
1978000000.0,0.701782,-0.081681
1985000000.0,0.678819,-0.113329
1992000000.0,0.655491,-0.132374
1999000000.0,0.629251,-0.157079
2006000000.0,0.602108,-0.178806
2013000000.0,0.574743,-0.190728
2020000000.0,0.55333,-0.191352
2027000000.0,0.533983,-0.196552
2034000000.0,0.519336,-0.19609
2041000000.0,0.508727,-0.19545
2048000000.0,0.505261,-0.190491
2055000000.0,0.50567,-0.19799
2062000000.0,0.507142,-0.201389
2069000000.0,0.513127,-0.213847
2076000000.0,0.519568,-0.223691
2083000000.0,0.524637,-0.246187
2090000000.0,0.531117,-0.271614
2097000000.0,0.536712,-0.298152
2104000000.0,0.530736,-0.335624
2111000000.0,0.494628,-0.40284
2118000000.0,0.514108,-0.40052
2125000000.0,0.493479,-0.438047
2132000000.0,0.466369,-0.473443
2139000000.0,0.434122,-0.505369
2146000000.0,0.394524,-0.533597
2153000000.0,0.358853,-0.551177
2160000000.0,0.307905,-0.570421
2167000000.0,0.268593,-0.575326
2174000000.0,0.224687,-0.580572
2181000000.0,0.174963,-0.574681
2188000000.0,0.128963,-0.567303
2195000000.0,0.09532,-0.551381
2202000000.0,0.055031,-0.530263
2209000000.0,0.03387,-0.504087
2216000000.0,0.01549,-0.475801
2223000000.0,0.003719,-0.447219
2230000000.0,-0.006945,-0.418579
2237000000.0,-0.004721,-0.389492
2244000000.0,-0.002812,-0.363522
2251000000.0,0.005479,-0.341938
2258000000.0,0.01874,-0.320471
2265000000.0,0.039622,-0.307279
2272000000.0,0.066554,-0.296361
2279000000.0,0.088358,-0.294112
2286000000.0,0.109356,-0.305093
2293000000.0,0.134073,-0.321674
2300000000.0,0.15192,-0.34914
2307000000.0,0.171736,-0.384483
2314000000.0,0.1777,-0.420209
2321000000.0,0.182443,-0.46264
2328000000.0,0.176199,-0.502684
2335000000.0,0.151561,-0.551411
2342000000.0,0.132052,-0.594605
2349000000.0,0.107195,-0.635277
2356000000.0,0.062577,-0.668546
2363000000.0,0.010195,-0.694733
2370000000.0,-0.036176,-0.7201
2377000000.0,-0.093743,-0.730882
2384000000.0,-0.153073,-0.738651
2391000000.0,-0.201076,-0.742838
2398000000.0,-0.252729,-0.740651
2405000000.0,-0.31403,-0.729415
2412000000.0,-0.375743,-0.720045
2419000000.0,-0.428472,-0.695339
2426000000.0,-0.476171,-0.670696
2433000000.0,-0.523015,-0.644143
2440000000.0,-0.568784,-0.611718
2447000000.0,-0.6046,-0.580758
2454000000.0,-0.64204,-0.544002
2461000000.0,-0.671106,-0.499746
2468000000.0,-0.70513,-0.457572
2475000000.0,-0.728667,-0.415773
2482000000.0,-0.752855,-0.36821
2489000000.0,-0.770287,-0.318583
2496000000.0,-0.782055,-0.28081
2503000000.0,-0.795051,-0.234014
2510000000.0,-0.79815,-0.201818
2517000000.0,-0.808774,-0.147429
2524000000.0,-0.811161,-0.09974
2531000000.0,-0.80977,-0.058286
2538000000.0,-0.804392,-0.006511
2545000000.0,-0.799759,0.0463
2552000000.0,-0.793636,0.068699
2559000000.0,-0.780957,0.117553
2566000000.0,-0.769564,0.168515
2573000000.0,-0.749005,0.216995
2580000000.0,-0.73076,0.249465
2587000000.0,-0.70989,0.29103
2594000000.0,-0.687346,0.321624
2601000000.0,-0.651767,0.363408
2608000000.0,-0.655018,0.345775
2615000000.0,-0.58627,0.41661
2622000000.0,-0.550568,0.438179
2629000000.0,-0.49824,0.466812
2636000000.0,-0.46449,0.477923
2643000000.0,-0.423246,0.488902
2650000000.0,-0.389895,0.496872
2657000000.0,-0.349221,0.49173
2664000000.0,-0.32785,0.487221
2671000000.0,-0.297251,0.48067
2678000000.0,-0.269866,0.471703
2685000000.0,-0.244733,0.456711
2692000000.0,-0.236189,0.451125
2699000000.0,-0.220759,0.437442
2706000000.0,-0.210827,0.433066
2713000000.0,-0.215249,0.42328
2720000000.0,-0.201509,0.424563
2727000000.0,-0.225468,0.414584
2734000000.0,-0.219455,0.418559
2741000000.0,-0.213118,0.426418
2748000000.0,-0.218587,0.430391
2755000000.0,-0.220591,0.442976
2762000000.0,-0.213319,0.456207
2769000000.0,-0.201373,0.471483
2776000000.0,-0.194657,0.492165
2783000000.0,-0.174704,0.511514
2790000000.0,-0.149122,0.534012
2797000000.0,-0.13051,0.550796
2804000000.0,-0.115909,0.570874
2811000000.0,-0.088527,0.589631
2818000000.0,-0.056505,0.604656
2825000000.0,-0.048706,0.619013
2832000000.0,-0.004212,0.628494
2839000000.0,0.021836,0.632295
2846000000.0,0.048829,0.632085
2853000000.0,0.076058,0.63403
2860000000.0,0.121243,0.629793
2867000000.0,0.152066,0.618446
2874000000.0,0.186124,0.612294
2881000000.0,0.209485,0.595334
2888000000.0,0.221714,0.59647
2895000000.0,0.268099,0.576181
2902000000.0,0.294587,0.557327
2909000000.0,0.321066,0.540993
2916000000.0,0.343221,0.522368
2923000000.0,0.359136,0.511754
2930000000.0,0.383725,0.49257
2937000000.0,0.404936,0.469303
2944000000.0,0.425386,0.450658
2951000000.0,0.439124,0.433094
2958000000.0,0.450805,0.417423
2965000000.0,0.470788,0.387721
2972000000.0,0.477318,0.371825
2979000000.0,0.491395,0.351993
2986000000.0,0.51227,0.322168
2993000000.0,0.520251,0.298735
3000000000.0,0.531864,0.271999
