Frequency (Hz),Real Part,Imaginary Part
1600000000.0,-0.787939,0.521172
1607000000.0,-0.764842,0.556202
1614000000.0,-0.738146,0.589448
1621000000.0,-0.714563,0.621711
1628000000.0,-0.680327,0.6585
1635000000.0,-0.640453,0.687132
1642000000.0,-0.600344,0.722464
1649000000.0,-0.573605,0.741707
1656000000.0,-0.529971,0.768782
1663000000.0,-0.495468,0.792478
1670000000.0,-0.460359,0.812929
1677000000.0,-0.404183,0.840518
1684000000.0,-0.3803,0.853159
1691000000.0,-0.338881,0.867548
1698000000.0,-0.292765,0.88364
1705000000.0,-0.249348,0.894413
1712000000.0,-0.210462,0.905132
1719000000.0,-0.158565,0.91205
1726000000.0,-0.125753,0.921442
1733000000.0,-0.080632,0.92325
1740000000.0,-0.037614,0.922871
1747000000.0,0.01239,0.920202
1754000000.0,0.068114,0.91155
1761000000.0,0.097178,0.907778
1768000000.0,0.135805,0.894857
1775000000.0,0.181294,0.888036
1782000000.0,0.214168,0.878501
1789000000.0,0.259644,0.864601
1796000000.0,0.294307,0.846954
1803000000.0,0.343439,0.825198
1810000000.0,0.370696,0.814628
1817000000.0,0.41359,0.790142
1824000000.0,0.446532,0.778703
1831000000.0,0.488162,0.745385
1838000000.0,0.517,0.718993
1845000000.0,0.540977,0.69567
1852000000.0,0.577866,0.65671
1859000000.0,0.595035,0.632672
1866000000.0,0.604716,0.629154
1873000000.0,0.658668,0.559579
1880000000.0,0.688083,0.52537
1887000000.0,0.709524,0.49008
1894000000.0,0.735227,0.454787
1901000000.0,0.755901,0.411334
1908000000.0,0.76662,0.370177
1915000000.0,0.783242,0.325576
1922000000.0,0.788609,0.29267
1929000000.0,0.799398,0.241046
1936000000.0,0.80946,0.198255
1943000000.0,0.81145,0.152391
1950000000.0,0.809487,0.117336
1957000000.0,0.812778,0.063785
1964000000.0,0.805907,0.020823
1971000000.0,0.79226,-0.01834
1978000000.0,0.778707,-0.068699
1985000000.0,0.761842,-0.100346
1992000000.0,0.745718,-0.141543
1999000000.0,0.720526,-0.180164
2006000000.0,0.694568,-0.213769
2013000000.0,0.66904,-0.240666
2020000000.0,0.63702,-0.270401
2027000000.0,0.60702,-0.288042
2034000000.0,0.576052,-0.299841
2041000000.0,0.548284,-0.310199
2048000000.0,0.518931,-0.323392
2055000000.0,0.497869,-0.321955
2062000000.0,0.474294,-0.328788
2069000000.0,0.461327,-0.324147
2076000000.0,0.444504,-0.329367
2083000000.0,0.437891,-0.32626
2090000000.0,0.430107,-0.332666
2097000000.0,0.427679,-0.339677
2104000000.0,0.4279,-0.345305
2111000000.0,0.426538,-0.359998
2118000000.0,0.424082,-0.379138
2125000000.0,0.420482,-0.401642
2132000000.0,0.411389,-0.428096
2139000000.0,0.401792,-0.450505
2146000000.0,0.378085,-0.477768
2153000000.0,0.353633,-0.505667
2160000000.0,0.317295,-0.527715
2167000000.0,0.287668,-0.548203
2174000000.0,0.245501,-0.563892
2181000000.0,0.197689,-0.572548
2188000000.0,0.153115,-0.575037
2195000000.0,0.116577,-0.567782
2202000000.0,0.076936,-0.557527
2209000000.0,0.048003,-0.537351
2216000000.0,0.017637,-0.518004
2223000000.0,-0.007698,-0.491593
2230000000.0,-0.020546,-0.46518
2237000000.0,-0.035183,-0.438728
2244000000.0,-0.037559,-0.409819
2251000000.0,-0.041057,-0.387941
2258000000.0,-0.029691,-0.364526
2265000000.0,-0.042762,-0.341996
2272000000.0,-0.010395,-0.331539
2279000000.0,0.001579,-0.320937
2286000000.0,0.017369,-0.317017
2293000000.0,0.029425,-0.320052
2300000000.0,0.044517,-0.328309
2307000000.0,0.059462,-0.340774
2314000000.0,0.075796,-0.360091
2321000000.0,0.080003,-0.380886
2328000000.0,0.093367,-0.402076
2335000000.0,0.093692,-0.436223
2342000000.0,0.09038,-0.47157
2349000000.0,0.075101,-0.509292
2356000000.0,0.055301,-0.54799
2363000000.0,0.031576,-0.581344
2370000000.0,-0.006154,-0.611354
2377000000.0,-0.050195,-0.640566
2384000000.0,-0.089063,-0.658763
2391000000.0,-0.143618,-0.67368
2398000000.0,-0.20304,-0.680921
2405000000.0,-0.253324,-0.688471
2412000000.0,-0.304826,-0.68619
2419000000.0,-0.366386,-0.671063
2426000000.0,-0.41336,-0.655668
2433000000.0,-0.467582,-0.630938
2440000000.0,-0.518685,-0.605826
2447000000.0,-0.565061,-0.576959
2454000000.0,-0.605658,-0.539097
2461000000.0,-0.637973,-0.502065
2468000000.0,-0.673219,-0.459495
2475000000.0,-0.706877,-0.411762
2482000000.0,-0.729083,-0.367404
2489000000.0,-0.749917,-0.314658
2496000000.0,-0.765735,-0.267494
2503000000.0,-0.781556,-0.220623
2510000000.0,-0.790518,-0.183327
2517000000.0,-0.786257,-0.127344
2524000000.0,-0.790534,-0.083785
2531000000.0,-0.791469,-0.029922
2538000000.0,-0.781907,0.010775
2545000000.0,-0.775131,0.067692
2552000000.0,-0.7637,0.107194
2559000000.0,-0.746978,0.148424
2566000000.0,-0.724604,0.195431
2573000000.0,-0.700876,0.244194
2580000000.0,-0.668753,0.285613
2587000000.0,-0.63645,0.318577
2594000000.0,-0.604697,0.345256
2601000000.0,-0.565179,0.368237
2608000000.0,-0.52384,0.384403
2615000000.0,-0.482026,0.405239
2622000000.0,-0.439071,0.412146
2629000000.0,-0.394088,0.412935
2636000000.0,-0.351402,0.416646
2643000000.0,-0.328249,0.400632
2650000000.0,-0.315014,0.385351
2657000000.0,-0.292139,0.367755
2664000000.0,-0.285413,0.355502
2671000000.0,-0.261402,0.351332
2678000000.0,-0.265284,0.33577
2685000000.0,-0.258815,0.330673
2692000000.0,-0.261059,0.328334
2699000000.0,-0.230379,0.345867
2706000000.0,-0.261539,0.33216
2713000000.0,-0.278192,0.328357
2720000000.0,-0.292858,0.333882
2727000000.0,-0.298372,0.343599
2734000000.0,-0.306537,0.359287
2741000000.0,-0.301331,0.375785
2748000000.0,-0.29972,0.390654
2755000000.0,-0.298722,0.413197
2762000000.0,-0.29406,0.434678
2769000000.0,-0.284383,0.462353
2776000000.0,-0.264232,0.485584
2783000000.0,-0.239994,0.511094
2790000000.0,-0.219026,0.535146
2797000000.0,-0.197266,0.561047
2804000000.0,-0.174473,0.58318
2811000000.0,-0.136491,0.610171
2818000000.0,-0.114515,0.632715
2825000000.0,-0.078733,0.644295
2832000000.0,-0.052218,0.650804
2839000000.0,-0.013378,0.657539
2846000000.0,0.019411,0.657954
2853000000.0,0.054766,0.661336
2860000000.0,0.081089,0.655391
2867000000.0,0.125552,0.648571
2874000000.0,0.158292,0.639248
2881000000.0,0.206546,0.622111
2888000000.0,0.227972,0.611315
2895000000.0,0.268591,0.596394
2902000000.0,0.282005,0.582921
2909000000.0,0.320838,0.560951
2916000000.0,0.345449,0.538707
2923000000.0,0.356992,0.525738
2930000000.0,0.382285,0.50702
2937000000.0,0.401543,0.485575
2944000000.0,0.416522,0.470217
2951000000.0,0.438086,0.447928
2958000000.0,0.453622,0.425458
2965000000.0,0.463865,0.408962
2972000000.0,0.475325,0.384306
2979000000.0,0.49478,0.355552
2986000000.0,0.502471,0.331167
2993000000.0,0.517,0.304284
3000000000.0,0.531235,0.276792
