Frequency (Hz),Real Part,Imaginary Part
1600000000.0,-0.788166,0.522191
1607000000.0,-0.759546,0.561377
1614000000.0,-0.732281,0.596914
1621000000.0,-0.70071,0.633088
1628000000.0,-0.672346,0.65989
1635000000.0,-0.639985,0.684727
1642000000.0,-0.602735,0.716367
1649000000.0,-0.564997,0.743607
1656000000.0,-0.525186,0.769127
1663000000.0,-0.483138,0.799263
1670000000.0,-0.454504,0.813137
1677000000.0,-0.41617,0.829405
1684000000.0,-0.37504,0.854028
1691000000.0,-0.330411,0.869895
1698000000.0,-0.286339,0.882841
1705000000.0,-0.238901,0.896089
1712000000.0,-0.207878,0.908418
1719000000.0,-0.151414,0.914157
1726000000.0,-0.116288,0.914967
1733000000.0,-0.069953,0.91708
1740000000.0,-0.024689,0.920943
1747000000.0,0.022215,0.915237
1754000000.0,0.055948,0.908316
1761000000.0,0.101348,0.901313
1768000000.0,0.145932,0.890654
1775000000.0,0.190691,0.882578
1782000000.0,0.227034,0.868701
1789000000.0,0.267295,0.854207
1796000000.0,0.311344,0.83726
1803000000.0,0.3509,0.817329
1810000000.0,0.387429,0.798323
1817000000.0,0.426656,0.769746
1824000000.0,0.453525,0.762889
1831000000.0,0.499507,0.720607
1838000000.0,0.524289,0.701416
1845000000.0,0.560041,0.66334
1852000000.0,0.589662,0.626441
1859000000.0,0.611078,0.598426
1866000000.0,0.638343,0.567825
1873000000.0,0.669551,0.527196
1880000000.0,0.687522,0.494468
1887000000.0,0.712135,0.447716
1894000000.0,0.670372,0.513384
1901000000.0,0.744507,0.365415
1908000000.0,0.751714,0.320256
1915000000.0,0.760274,0.275604
1922000000.0,0.761813,0.234585
1929000000.0,0.76744,0.184749
1936000000.0,0.76356,0.145672
1943000000.0,0.761169,0.101877
1950000000.0,0.748749,0.063874
1957000000.0,0.739413,0.017371
1964000000.0,0.715008,-0.015549
1971000000.0,0.696355,-0.052621
1978000000.0,0.668065,-0.075167
1985000000.0,0.642242,-0.105279
1992000000.0,0.620347,-0.120215
1999000000.0,0.59361,-0.141735
2006000000.0,0.571499,-0.147482
2013000000.0,0.552786,-0.154621
2020000000.0,0.538168,-0.154632
2027000000.0,0.525061,-0.149723
2034000000.0,0.518581,-0.150753
2041000000.0,0.515908,-0.154855
2048000000.0,0.517344,-0.157626
2055000000.0,0.523347,-0.167901
2062000000.0,0.53125,-0.177871
2069000000.0,0.540852,-0.18919
2076000000.0,0.547733,-0.218864
2083000000.0,0.550466,-0.244375
2090000000.0,0.552666,-0.276276
2097000000.0,0.552604,-0.309583
2104000000.0,0.541553,-0.348264
2111000000.0,0.5281,-0.385868
2118000000.0,0.516159,-0.413743
2125000000.0,0.475,-0.460233
2132000000.0,0.451218,-0.484425
2139000000.0,0.411363,-0.510495
2146000000.0,0.365817,-0.530465
2153000000.0,0.317697,-0.544108
2160000000.0,0.275133,-0.547685
2167000000.0,0.228849,-0.54674
2174000000.0,0.185441,-0.540028
2181000000.0,0.145787,-0.524779
2188000000.0,0.109152,-0.505419
2195000000.0,0.087092,-0.478487
2202000000.0,0.07142,-0.447372
2209000000.0,0.059792,-0.417753
2216000000.0,0.059718,-0.38962
2223000000.0,0.068253,-0.366076
2230000000.0,0.074717,-0.344331
2237000000.0,0.095728,-0.32774
2244000000.0,0.114856,-0.321256
2251000000.0,0.132437,-0.322383
2258000000.0,0.155379,-0.324724
2265000000.0,0.177664,-0.333547
2272000000.0,0.193953,-0.349601
2279000000.0,0.207299,-0.370215
2286000000.0,0.217164,-0.403727
2293000000.0,0.22281,-0.441339
2300000000.0,0.214846,-0.482824
2307000000.0,0.25177,-0.511761
2314000000.0,0.175626,-0.564323
2321000000.0,0.152536,-0.609374
2328000000.0,0.131536,-0.632917
2335000000.0,0.090809,-0.667947
2342000000.0,0.055475,-0.697983
2349000000.0,0.018102,-0.721658
2356000000.0,-0.035794,-0.737671
2363000000.0,-0.088658,-0.751118
2370000000.0,-0.161499,-0.746988
2377000000.0,-0.202565,-0.754877
2384000000.0,-0.244345,-0.752219
2391000000.0,-0.377514,-0.69535
2398000000.0,-0.356846,-0.725407
2405000000.0,-0.40695,-0.708589
2412000000.0,-0.446728,-0.696156
2419000000.0,-0.503596,-0.658359
2426000000.0,-0.537775,-0.634428
2433000000.0,-0.58317,-0.601066
2440000000.0,-0.621072,-0.568985
2447000000.0,-0.650937,-0.532749
2454000000.0,-0.67797,-0.496036
2461000000.0,-0.716483,-0.437333
2468000000.0,-0.740401,-0.400929
2475000000.0,-0.760015,-0.353175
2482000000.0,-0.775358,-0.305734
2489000000.0,-0.791208,-0.257725
2496000000.0,-0.796768,-0.213159
2503000000.0,-0.80987,-0.167221
2510000000.0,-0.812325,-0.1137
2517000000.0,-0.809047,-0.082429
2524000000.0,-0.802202,-0.024939
2531000000.0,-0.799966,0.02957
2538000000.0,-0.788816,0.06383
2545000000.0,-0.77132,0.1241
2552000000.0,-0.756491,0.159761
2559000000.0,-0.736101,0.198928
2566000000.0,-0.705322,0.247605
2573000000.0,-0.675163,0.283194
2580000000.0,-0.658038,0.293604
2587000000.0,-0.610977,0.349596
2594000000.0,-0.576615,0.364901
2601000000.0,-0.532225,0.390168
2608000000.0,-0.495307,0.393911
2615000000.0,-0.457978,0.403203
2622000000.0,-0.418163,0.400657
2629000000.0,-0.382582,0.401094
2636000000.0,-0.350575,0.398039
2643000000.0,-0.373265,0.343253
2650000000.0,-0.305926,0.370697
2657000000.0,-0.290704,0.361155
2664000000.0,-0.290691,0.350243
2671000000.0,-0.281303,0.343736
2678000000.0,-0.279435,0.338097
2685000000.0,-0.281377,0.332107
2692000000.0,-0.281732,0.33396
2699000000.0,-0.28564,0.33547
2706000000.0,-0.291833,0.342864
2713000000.0,-0.302078,0.34936
2720000000.0,-0.306225,0.359128
2727000000.0,-0.313554,0.37329
2734000000.0,-0.315512,0.39159
2741000000.0,-0.312671,0.407381
2748000000.0,-0.305089,0.429927
2755000000.0,-0.304551,0.454327
2762000000.0,-0.298183,0.475723
2769000000.0,-0.282067,0.498265
2776000000.0,-0.252894,0.526212
2783000000.0,-0.227381,0.549827
2790000000.0,-0.203937,0.575263
2797000000.0,-0.167785,0.596762
2804000000.0,-0.139501,0.614832
2811000000.0,-0.107611,0.637595
2818000000.0,-0.07955,0.646487
2825000000.0,-0.037748,0.658153
2832000000.0,-0.012169,0.664248
2839000000.0,0.026815,0.669379
2846000000.0,0.055888,0.666368
2853000000.0,0.091909,0.666539
2860000000.0,0.128953,0.660495
2867000000.0,0.152,0.649816
2874000000.0,0.192632,0.636335
2881000000.0,0.232236,0.620902
2888000000.0,0.250891,0.602883
2895000000.0,0.283145,0.585249
2902000000.0,0.298843,0.578587
2909000000.0,0.331895,0.559843
2916000000.0,0.355846,0.536786
2923000000.0,0.381006,0.512077
2930000000.0,0.39625,0.500001
2937000000.0,0.421225,0.474193
2944000000.0,0.428523,0.463551
2951000000.0,0.448497,0.440577
2958000000.0,0.461601,0.422757
2965000000.0,0.475038,0.403747
2972000000.0,0.493832,0.373452
2979000000.0,0.50849,0.342977
2986000000.0,0.516125,0.320166
2993000000.0,0.528425,0.29982
3000000000.0,0.540575,0.272642
