Freq (Hz),s21avg
2000000000.0,-0.38129171527444844
2001001001.0010011,-0.3899067859141063
2002002002.002002,-0.3985218565537623
2003003003.0030031,-0.4071369271934202
2004004004.004004,-0.4157519978330761
2005005005.0050051,-0.42435549825755714
2006006006.006006,-0.43065652586187664
2007007007.0070071,-0.4369575534661977
2008008008.008008,-0.4432585810705172
2009009009.0090091,-0.4495596086748382
2010010010.01001,-0.45591027434081555
2011011011.0110111,-0.4671751081109088
2012012012.012012,-0.4784399418809997
2013013013.0130131,-0.4897047756510931
2014014014.014014,-0.5009696094211838
2015015015.0150151,-0.5121506368473591
2016016016.016016,-0.5178283810229429
2017017017.0170171,-0.5235061251985281
2018018018.018018,-0.529183869374112
2019019019.0190191,-0.5348616135496973
2020020020.02002,-0.5404871235798664
2021021021.0210211,-0.5435531604847127
2022022022.022022,-0.5466191973895584
2023023023.0230231,-0.5496852342944049
2024024024.024024,-0.5527512711992503
2025025025.0250251,-0.5560808439500569
2026026026.026026,-0.569688314693265
2027027027.0270271,-0.5832957854364761
2028028028.028028,-0.596903256179684
2029029029.0290291,-0.6105107269228951
2030030030.03003,-0.6239494851800607
2031031031.0310311,-0.6319332063885239
2032032032.032032,-0.6399169275969854
2033033033.0330331,-0.6479006488054486
2034034034.034034,-0.6558843700139099
2035035035.0350351,-0.6638292177830032
2036036036.036036,-0.6707022692951824
2037037037.0370371,-0.6775753208073629
2038038038.038038,-0.684448372319542
2039039039.0390391,-0.6913214238317228
2040040040.04004,-0.6981485298967217
2041041041.0410411,-0.7038729452293988
2042042042.042042,-0.7095973605620747
2043043043.0430431,-0.7153217758947519
2044044044.044044,-0.7210461912274275
2045045045.0450451,-0.7270248659668124
2046046046.046046,-0.7383994903374267
2047047047.0470471,-0.7497741147080433
2048048048.048048,-0.7611487390786575
2049049049.0490491,-0.7725233634492744
2050050050.05005,-0.7835897645814954
2051051051.0510511,-0.7887999241842447
2052052052.052052,-0.7940100837869928
2053053053.0530531,-0.7992202433897424
2054054054.054054,-0.8044304029924906
2055055055.0550551,-0.8097723281782153
2056056056.056056,-0.8173782256532407
2057057057.0570571,-0.8249841231282679
2058058058.058058,-0.8325900206032933
2059059059.0590591,-0.8401959180783203
2060060060.06006,-0.8477650560718952
2061061061.0610611,-0.8547582955227497
2062062062.062062,-0.8617515349736025
2063063063.0630631,-0.8687447744244565
2064064064.064064,-0.8757380138753094
2065065065.0650651,-0.8829066088944488
2066066066.066066,-0.8925976263189176
2067067067.0670671,-0.9022886437433888
2068068068.068068,-0.9119796611678577
2069069069.0690691,-0.921670678592329
2070070070.07007,-0.9312723428334786
2071071071.0710711,-0.9396868862105322
2072072072.072072,-0.9481014295875836
2073073073.0730731,-0.9565159729646368
2074074074.074074,-0.9649305163416881
2075075075.0750751,-0.973493879163985
2076076076.076076,-0.9838926818109467
2077077077.0770772,-0.9942914844579109
2078078078.078078,-1.0046902871048726
2079079079.0790792,-1.0150890897518368
2080080080.08008,-1.0254214777989126
2081081081.0810812,-1.0349900979473037
2082082082.082082,-1.0445587180956926
2083083083.0830832,-1.0541273382440837
2084084084.084084,-1.0636959583924726
2085085085.0850852,-1.0734013354865772
2086086086.086086,-1.0845788608786564
2087087087.0870872,-1.0957563862707376
2088088088.088088,-1.1069339116628165
2089089089.0890892,-1.1181114370548981
2090090090.09009,-1.1290331866084145
2091091091.0910912,-1.1373687582386913
2092092092.092092,-1.1457043298689662
2093093093.0930932,-1.1540399014992433
2094094094.094094,-1.1623754731295182
2095095095.0950952,-1.1708861665590722
2096096096.096096,-1.1810651255501583
2097097097.0970972,-1.1912440845412462
2098098098.098098,-1.201423043532332
2099099099.0990992,-1.2116020025234202
2100100100.1001,-1.2217227943236761
2101101101.1011012,-1.2313200814064647
2102102102.102102,-1.2409173684892507
2103103103.1031032,-1.2505146555720394
2104104104.104104,-1.2601119426548262
2105105105.1051052,-1.2700070988162246
2106106106.106106,-1.282441234266723
2107107107.1071072,-1.2948753697172237
2108108108.108108,-1.3073095051677222
2109109109.1091092,-1.3197436406182235
2110110110.11011,-1.3323785008798052
2111111111.1111112,-1.3466374073401604
2112112112.112112,-1.3608963138005117
2113113113.1131132,-1.3751552202608668
2114114114.114114,-1.3894141267212183
2115115115.1151152,-1.4028944730197068
2116116116.116116,-1.4103832911160055
2117117117.1171172,-1.417872109212306
2118118118.118118,-1.4253609273086045
2119119119.1191192,-1.4328497454049054
2120120120.12012,-1.4414535252058103
2121121121.1211212,-1.4582336908405042
2122122122.122122,-1.4750138564751942
2123123123.1231232,-1.4917940221098884
2124124124.124124,-1.5085741877445782
2125125125.1251252,-1.5248741275014048
2126126126.126126,-1.5378124861131535
2127127127.1271272,-1.5507508447249054
2128128128.128128,-1.5636892033366545
2129129129.1291292,-1.5766275619484065
2130130130.13013,-1.5903884492855487
2131131131.1311312,-1.6096539519387907
2132132132.132132,-1.6289194545920278
2133133133.1331332,-1.6481849572452698
2134134134.134134,-1.667450459898507
2135135135.1351352,-1.6859752414789004
2136136136.136136,-1.6997539213702957
2137137137.1371372,-1.7135326012616947
2138138138.138138,-1.7273112811530908
2139139139.1391392,-1.7410899610444894
2140140140.14014,-1.7555750176227911
2141141141.1411412,-1.774399245277809
2142142142.142142,-1.7932234729328222
2143143143.1431432,-1.8120477005878404
2144144144.144144,-1.8308719282428534
2145145145.1451452,-1.8502056468387675
2146146146.146146,-1.8725436051206512
2147147147.1471472,-1.8948815634025393
2148148148.148148,-1.9172195216844223
2149149149.149149,-1.939557479966306
2150150150.1501503,-1.9617359652912207
2151151151.151151,-1.9830107705265783
2152152152.152152,-2.004285575761936
2153153153.153153,-2.0255603809972933
2154154154.1541543,-2.0468351862326606
2155155155.155155,-2.0684376697677096
2156156156.156156,-2.091826528549464
2157157157.157157,-2.1152153873312183
2158158158.1581583,-2.138604246112984
2159159159.159159,-2.1619931048947385
2160160160.16016,-2.186257671767016
2161161161.161161,-2.215119706114545
2162162162.1621623,-2.2439817404620888
2163163163.163163,-2.272843774809618
2164164164.164164,-2.301705809157147
2165165165.165165,-2.329487972330626
2166166166.1661663,-2.351805332896037
2167167167.167167,-2.3741226934614374
2168168168.168168,-2.3964400540268382
2169169169.169169,-2.418757414592239
2170170170.1701703,-2.442358097421618
2171171171.171171,-2.4722244124809416
2172172172.172172,-2.502090727540265
2173173173.173173,-2.531957042599588
2174174174.1741743,-2.561823357658925
2175175175.175175,-2.5932143301905914
2176176176.176176,-2.631792973663301
2177177177.177177,-2.67037161713601
2178178178.1781783,-2.708950260608738
2179179179.179179,-2.747528904081448
2180180180.18018,-2.7851927127940774
2181181181.181181,-2.8186889409330105
2182182182.1821823,-2.8521851690719586
2183183183.183183,-2.8856813972108912
2184184184.184184,-2.919177625349824
2185185185.1851854,-2.954945437199915
2186186186.1861863,-3.000720496209865
2187187187.187187,-3.046495555219816
2188188188.188188,-3.092270614229767
2189189189.189189,-3.138045673239718
2190190190.1901903,-3.182577116606894
2191191191.191191,-3.2218068301284495
2192192192.192192,-3.261036543650004
2193193193.1931934,-3.3002662571715766
2194194194.1941943,-3.3394959706931315
2195195195.195195,-3.3806781417137346
2196196196.196196,-3.4299204577945104
2197197197.197197,-3.4791627738752853
2198198198.1981983,-3.5284050899560846
2199199199.199199,-3.577647406036861
2200200200.2002,-3.627039050967329
2201201201.2012014,-3.677028011296593
2202202202.2022023,-3.7270169716258317
2203203203.203203,-3.7770059319550717
2204204204.204204,-3.8269948922843104
2205205205.205205,-3.8786239700239933
2206206206.2062063,-3.9366135030871376
2207207207.207207,-3.994603036150255
2208208208.208208,-4.052592569213371
2209209209.2092094,-4.110582102276515
2210210210.2102103,-4.168317940898561
2211211211.211211,-4.225099405194669
2212212212.212212,-4.281880869490778
2213213213.213213,-4.3386623337868855
2214214214.2142143,-4.395443798083023
2215215215.215215,-4.450638271732092
2216216216.216216,-4.500038384181508
2217217217.2172174,-4.549438496630948
2218218218.2182183,-4.598838609080365
2219219219.219219,-4.648238721529781
2220220220.22022,-4.702382890080639
2221221221.221221,-4.773346893900252
2222222222.2222223,-4.8443108977198985
2223223223.223223,-4.91527490153951
2224224224.224224,-4.986238905359125
2225225225.2252254,-5.055191899004891
2226226226.2262263,-5.11721807982949
2227227227.227227,-5.179244260654089
2228228228.228228,-5.241270441478688
2229229229.229229,-5.303296622303288
2230230230.2302303,-5.36443588586266
2231231231.231231,-5.4226059046644135
2232232232.232232,-5.480775923466167
2233233233.2332335,-5.538945942267948
2234234234.2342343,-5.597115961069702
2235235235.235235,-5.65758940971143
2236236236.236236,-5.7255612576194626
2237237237.2372375,-5.793533105527528
2238238238.2382383,-5.861504953435562
2239239239.239239,-5.929476801343594
2240240240.24024,-5.9952118882103145
2241241241.2412415,-6.0538638984462345
2242242242.2422423,-6.112515908682129
2243243243.243243,-6.17116791891802
2244244244.244244,-6.229819929153912
2245245245.2452455,-6.286378197555041
2246246246.2462463,-6.336484322750974
2247247247.247247,-6.386590447946906
2248248248.248248,-6.436696573142837
2249249249.2492495,-6.486802698338792
2250250250.2502503,-6.537205827043778
2251251251.251251,-6.588499966275923
2252252252.252252,-6.639794105508069
2253253253.2532535,-6.6910882447402384
2254254254.2542543,-6.7423823839723855
2255255255.255255,-6.793861732622181
2256256256.256256,-6.845882183296098
2257257257.2572575,-6.897902633970037
2258258258.2582583,-6.949923084643953
2259259259.259259,-7.001943535317869
2260260260.26026,-7.049480970807657
2261261261.2612615,-7.084259055388789
2262262262.2622623,-7.119037139969903
2263263263.263263,-7.153815224551016
2264264264.264264,-7.188593309132131
2265265265.2652655,-7.225212972342885
2266266266.2662663,-7.266940410243326
2267267267.267267,-7.30866784814377
2268268268.268268,-7.350395286044209
2269269269.2692695,-7.392122723944672
2270270270.2702703,-7.430183806211389
2271271271.271271,-7.458332149172106
2272272272.272272,-7.486480492132827
2273273273.2732735,-7.514628835093561
2274274274.2742743,-7.54277717805428
2275275275.275275,-7.569793301761043
2276276276.276276,-7.593824483798281
2277277277.2772775,-7.617855665835529
2278278278.2782784,-7.641886847872766
2279279279.279279,-7.665918029910005
2280280280.28028,-7.687334712006683
2281281281.2812815,-7.702028394256215
2282282282.2822824,-7.716722076505741
2283283283.283283,-7.731415758755266
2284284284.284284,-7.746109441004791
2285285285.2852855,-7.759828340277987
2286286286.2862864,-7.771101731382471
2287287287.287287,-7.782375122486959
2288288288.288288,-7.793648513591445
2289289289.2892895,-7.804921904695936
2290290290.2902904,-7.816440350708092
2291291291.291291,-7.828558758735575
2292292292.292292,-7.84067716676306
2293293293.2932935,-7.852795574790548
2294294294.2942944,-7.864913982818031
2295295295.2952952,-7.872060300970095
2296296296.296296,-7.867324167047011
2297297297.2972975,-7.862588033123922
2298298298.2982984,-7.857851899200836
2299299299.2992992,-7.8531157652777495
2300300300.3003,-7.852427520665716
2301301301.3013015,-7.861184351112814
2302302302.3023024,-7.869941181559907
2303303303.3033032,-7.878698012007002
2304304304.304304,-7.887454842454096
2305305305.3053055,-7.893156219052588
2306306306.3063064,-7.891895168028853
2307307307.3073072,-7.890634117005118
2308308308.308308,-7.889373065981384
2309309309.3093095,-7.888112014957651
2310310310.3103104,-7.88695823247018
2311311311.3113112,-7.886043208982782
2312312312.312312,-7.885128185495388
2313313313.3133135,-7.884213162007991
2314314314.3143144,-7.883298138520596
2315315315.3153152,-7.879577151815974
2316316316.316316,-7.869754308591356
2317317317.3173175,-7.859931465366733
2318318318.3183184,-7.850108622142114
2319319319.3193192,-7.840285778917496
2320320320.32032,-7.833896576247923
2321321321.3213215,-7.834803859757827
2322322322.3223224,-7.835711143267733
2323323323.3233232,-7.836618426777635
2324324324.324324,-7.837525710287539
2325325325.3253255,-7.83401598493783
2326326326.3263264,-7.821332471956623
2327327327.3273273,-7.80864895897542
2328328328.328328,-7.795965445994213
2329329329.3293295,-7.783281933012999
2330330330.3303304,-7.771889760834787
2331331331.3313313,-7.763119401802042
2332332332.332332,-7.754349042769294
2333333333.3333335,-7.745578683736542
2334334334.3343344,-7.736808324703796
2335335335.3353353,-7.730028935097482
2336336336.336336,-7.727201768382445
2337337337.3373375,-7.724374601667405
2338338338.3383384,-7.721547434952368
2339339339.3393393,-7.7187202682373295
2340340340.34034,-7.7115585911290925
2341341341.3413415,-7.695982864434042
2342342342.3423424,-7.680407137738999
2343343343.3433433,-7.664831411043956
2344344344.344344,-7.649255684348913
2345345345.3453455,-7.633913804742312
2346346346.3463464,-7.619015895694945
2347347347.3473473,-7.604117986647578
2348348348.348348,-7.589220077600214
2349349349.3493495,-7.574322168552842
2350350350.3503504,-7.555917100015951
2351351351.3513513,-7.530998735284231
2352352352.352352,-7.506080370552508
2353353353.3533535,-7.481162005820778
2354354354.3543544,-7.456243641089055
2355355355.3553553,-7.433990188893115
2356356356.356356,-7.4165786200368276
2357357357.3573575,-7.399167051180532
2358358358.3583584,-7.381755482324246
2359359359.3593593,-7.364343913467961
2360360360.36036,-7.341742154425523
2361361361.3613615,-7.309913390607687
2362362362.3623624,-7.278084626789865
2363363363.3633633,-7.246255862972045
2364364364.3643646,-7.21442709915421
2365365365.3653655,-7.185274403193455
2366366366.3663664,-7.160777332134714
2367367367.3673673,-7.136280261075973
2368368368.368368,-7.111783190017233
2369369369.3693695,-7.087286118958481
2370370370.3703704,-7.062837693263975
2371371371.3713713,-7.038472096162633
2372372372.3723726,-7.014106499061278
2373373373.3733735,-6.989740901959934
2374374374.3743744,-6.96537530485859
2375375375.3753753,-6.939382859296738
2376376376.376376,-6.9106789996340385
2377377377.3773775,-6.8819751399713285
2378378378.3783784,-6.85327128030863
2379379379.3793793,-6.8245674206459315
2380380380.3803806,-6.794307222358536
2381381381.3813815,-6.761507734736149
2382382382.3823824,-6.7287082471137625
2383383383.3833833,-6.695908759491376
2384384384.384384,-6.663109271868988
2385385385.3853855,-6.633175560810562
2386386386.3863864,-6.607819648679017
2387387387.3873873,-6.582463736547474
2388388388.3883886,-6.557107824415918
2389389389.3893895,-6.531751912284375
2390390390.3903904,-6.5065900445241995
2391391391.3913913,-6.481731682062835
2392392392.392392,-6.456873319601469
2393393393.3933935,-6.432014957140092
2394394394.3943944,-6.407156594678727
2395395395.3953953,-6.37866405928544
2396396396.3963966,-6.344605259021728
2397397397.3973975,-6.310546458758031
2398398398.3983984,-6.276487658494336
2399399399.3993993,-6.24242885823064
2400400400.4004,-6.2135204913304
2401401401.4014015,-6.192337774475344
2402402402.4024024,-6.1711550576202985
2403403403.4034033,-6.149972340765253
2404404404.4044046,-6.128789623910196
2405405405.4054055,-6.108928439291488
2406406406.4064064,-6.091008764995303
2407407407.4074073,-6.073089090699118
2408408408.408408,-6.055169416402933
2409409409.4094095,-6.037249742106737
2410410410.4104104,-6.019515924115972
2411411411.4114113,-6.002049557881786
2412412412.4124126,-5.984583191647594
2413413413.4134135,-5.967116825413408
2414414414.4144144,-5.949650459179223
2415415415.4154153,-5.932069873174983
2416416416.416416,-5.914328278579221
2417417417.4174175,-5.896586683983452
2418418418.4184184,-5.878845089387691
2419419419.4194193,-5.861103494791928
2420420420.4204206,-5.849730849334175
2421421421.4214215,-5.847153419352724
2422422422.4224224,-5.844575989371273
2423423423.4234233,-5.841998559389822
2424424424.424424,-5.839421129408371
2425425425.4254255,-5.8407136029896325
2426426426.4264264,-5.847241828449856
2427427427.4274273,-5.853770053910081
2428428428.4284286,-5.860298279370307
2429429429.4294295,-5.866826504830532
2430430430.4304304,-5.869453186529497
2431431431.4314313,-5.8669080544054
2432432432.432432,-5.864362922281304
2433433433.4334335,-5.861817790157205
2434434434.4344344,-5.859272658033107
2435435435.4354353,-5.8660620728245405
2436436436.4364367,-5.884975669241908
2437437437.4374375,-5.903889265659264
2438438438.4384384,-5.922802862076621
2439439439.4394393,-5.941716458493978
2440440440.44044,-5.962526095138338
2441441441.4414415,-5.985748873889804
2442442442.4424424,-6.008971652641259
2443443443.4434433,-6.032194431392714
2444444444.4444447,-6.0554172101441806
2445445445.4454455,-6.080486372809989
2446446446.4464464,-6.10785832889707
2447447447.4474473,-6.135230284984151
2448448448.448448,-6.16260224107123
2449449449.4494495,-6.189974197158324
2450450450.4504504,-6.222020256260276
2451451451.4514513,-6.259779107935957
2452452452.4524527,-6.297537959611659
2453453453.4534535,-6.335296811287341
2454454454.4544544,-6.373055662963023
2455455455.4554553,-6.417203273171441
2456456456.456456,-6.469003352391601
2457457457.4574575,-6.520803431611787
2458458458.4584584,-6.572603510831948
2459459459.4594593,-6.6244035900521085
2460460460.4604607,-6.682604321949809
2461461461.4614615,-6.748318863512388
2462462462.4624624,-6.814033405074966
2463463463.4634633,-6.879747946637542
2464464464.4644647,-6.945462488200152
2465465465.4654655,-7.0142784136751075
2466466466.4664664,-7.0866625980599975
2467467467.4674673,-7.159046782444889
2468468468.4684687,-7.231430966829814
2469469469.4694695,-7.303815151214704
2470470470.4704704,-7.381333781911164
2471471471.4714713,-7.464642320150453
2472472472.4724727,-7.5479508583897825
2473473473.4734735,-7.631259396629072
2474474474.4744744,-7.71456793486836
2475475475.4754753,-7.801670527503975
2476476476.4764767,-7.892966548682942
2477477477.4774776,-7.984262569861864
2478478478.4784784,-8.075558591040785
2479479479.4794793,-8.166854612219707
2480480480.4804807,-8.258631910492705
2481481481.4814816,-8.35093059228419
2482482482.4824824,-8.443229274075676
2483483483.4834833,-8.535527955867163
2484484484.4844847,-8.627826637658696
2485485485.4854856,-8.723748780536834
2486486486.4864864,-8.82351851611523
2487487487.4874873,-8.923288251693625
2488488488.4884887,-9.023057987272066
2489489489.4894896,-9.122827722850463
2490490490.4904904,-9.22505217119116
2491491491.4914913,-9.329831524651809
2492492492.4924927,-9.434610878112505
2493493493.4934936,-9.539390231573154
2494494494.4944944,-9.6441695850338
2495495495.4954953,-9.735071344758238
2496496496.4964967,-9.811815155317483
2497497497.4974976,-9.888558965876687
2498498498.4984984,-9.965302776435895
2499499499.4994993,-10.042046586995099
2500500500.5005007,-10.1045519733728
2501501501.5015016,-10.152818935568934
2502502502.5025024,-10.201085897765065
2503503503.5035033,-10.2493528599612
2504504504.5045047,-10.297619822157355
2505505505.5055056,-10.33731883395716
2506506506.5065064,-10.36861955774472
2507507507.5075073,-10.399920281532285
2508508508.5085087,-10.431221005319863
2509509509.5095096,-10.462521729107426
2510510510.5105104,-10.466887709327576
2511511511.5115113,-10.445375210433935
2512512512.5125127,-10.423862711540284
2513513513.5135136,-10.402350212646647
2514514514.5145144,-10.380837713753008
2515515515.5155153,-10.342422665087577
2516516516.5165167,-10.28808968120014
2517517517.5175176,-10.233756697312723
2518518518.5185184,-10.17942371342531
2519519519.5195193,-10.125090729537892
2520520520.5205207,-10.060315197019895
2521521521.5215216,-9.985900388842959
2522522522.5225224,-9.911485580666024
2523523523.5235233,-9.837070772489087
2524524524.5245247,-9.762655964312115
2525525525.5255256,-9.67539912298505
2526526526.5265265,-9.576523299284064
