Frequency (Hz),Real Part,Imaginary Part
1600000000.0,-0.784293,0.524881
1607000000.0,-0.763554,0.557519
1614000000.0,-0.727905,0.596619
1621000000.0,-0.710714,0.621498
1628000000.0,-0.673901,0.662313
1635000000.0,-0.641166,0.68554
1642000000.0,-0.607937,0.716427
1649000000.0,-0.564877,0.744575
1656000000.0,-0.529096,0.769384
1663000000.0,-0.491955,0.792218
1670000000.0,-0.453294,0.815995
1677000000.0,-0.410915,0.837603
1684000000.0,-0.373583,0.851989
1691000000.0,-0.334215,0.870563
1698000000.0,-0.291454,0.885088
1705000000.0,-0.248114,0.898552
1712000000.0,-0.201723,0.907062
1719000000.0,-0.151606,0.911991
1726000000.0,-0.121181,0.913759
1733000000.0,-0.073869,0.923952
1740000000.0,-0.033578,0.923239
1747000000.0,0.007429,0.916164
1754000000.0,0.058349,0.914397
1761000000.0,0.10253,0.905917
1768000000.0,0.14572,0.893223
1775000000.0,0.180583,0.885434
1782000000.0,0.223719,0.874269
1789000000.0,0.263947,0.859195
1796000000.0,0.305011,0.843743
1803000000.0,0.340532,0.821812
1810000000.0,0.374052,0.810653
1817000000.0,0.419947,0.783498
1824000000.0,0.451038,0.774783
1831000000.0,0.494669,0.730873
1838000000.0,0.522313,0.711248
1845000000.0,0.555209,0.678086
1852000000.0,0.589556,0.6506
1859000000.0,0.613383,0.612879
1866000000.0,0.635235,0.585286
1873000000.0,0.665643,0.54149
1880000000.0,0.693259,0.5007
1887000000.0,0.714276,0.466929
1894000000.0,0.734022,0.423864
1901000000.0,0.749958,0.386599
1908000000.0,0.761402,0.337296
1915000000.0,0.768977,0.297954
1922000000.0,0.779339,0.2485
1929000000.0,0.784554,0.213531
1936000000.0,0.785409,0.168716
1943000000.0,0.782913,0.125414
1950000000.0,0.781958,0.079767
1957000000.0,0.766233,0.035986
1964000000.0,0.756808,-0.002761
1971000000.0,0.740244,-0.045392
1978000000.0,0.718984,-0.074338
1985000000.0,0.698535,-0.112427
1992000000.0,0.672677,-0.13894
1999000000.0,0.64727,-0.169719
2006000000.0,0.61962,-0.183092
2013000000.0,0.590737,-0.210194
2020000000.0,0.565985,-0.2166
2027000000.0,0.541264,-0.221602
2034000000.0,0.524157,-0.219844
2041000000.0,0.509837,-0.221578
2048000000.0,0.499586,-0.222739
2055000000.0,0.493893,-0.226047
2062000000.0,0.494661,-0.224879
2069000000.0,0.49413,-0.234776
2076000000.0,0.496913,-0.244648
2083000000.0,0.500305,-0.26218
2090000000.0,0.507099,-0.277202
2097000000.0,0.506067,-0.305923
2104000000.0,0.503485,-0.336245
2111000000.0,0.501788,-0.360261
2118000000.0,0.489943,-0.396356
2125000000.0,0.46844,-0.435396
2132000000.0,0.447831,-0.463779
2139000000.0,0.421257,-0.487431
2146000000.0,0.383866,-0.516715
2153000000.0,0.343795,-0.536712
2160000000.0,0.300661,-0.555176
2167000000.0,0.258509,-0.561158
2174000000.0,0.210257,-0.565069
2181000000.0,0.166977,-0.558929
2188000000.0,0.124624,-0.547052
2195000000.0,0.093468,-0.533367
2202000000.0,0.064471,-0.507228
2209000000.0,0.036931,-0.481518
2216000000.0,0.018484,-0.454087
2223000000.0,0.009004,-0.425946
2230000000.0,0.061264,-0.39404
2237000000.0,0.005526,-0.369519
2244000000.0,0.014906,-0.345527
2251000000.0,0.027691,-0.328487
2258000000.0,0.048288,-0.311232
2265000000.0,0.073219,-0.300723
2272000000.0,0.095605,-0.299057
2279000000.0,0.119051,-0.302248
2286000000.0,0.139297,-0.31861
2293000000.0,0.155879,-0.342927
2300000000.0,0.168998,-0.374154
2307000000.0,0.169352,-0.412141
2314000000.0,0.17566,-0.447724
2321000000.0,0.171751,-0.48799
2328000000.0,0.155823,-0.526769
2335000000.0,0.138113,-0.568398
2342000000.0,0.112086,-0.607245
2349000000.0,0.083938,-0.639847
2356000000.0,0.045318,-0.67233
2363000000.0,-0.009874,-0.69775
2370000000.0,-0.058251,-0.7156
2377000000.0,-0.109412,-0.727133
2384000000.0,-0.164203,-0.737979
2391000000.0,-0.22677,-0.739486
2398000000.0,-0.271851,-0.72891
2405000000.0,-0.328538,-0.72154
2412000000.0,-0.388594,-0.712048
2419000000.0,-0.442452,-0.685605
2426000000.0,-0.490671,-0.659702
2433000000.0,-0.523856,-0.631719
2440000000.0,-0.576129,-0.593589
2447000000.0,-0.61569,-0.559197
2454000000.0,-0.647765,-0.522183
2461000000.0,-0.679687,-0.477304
2468000000.0,-0.709838,-0.444535
2475000000.0,-0.734754,-0.391203
2482000000.0,-0.753965,-0.346237
2489000000.0,-0.763885,-0.305792
2496000000.0,-0.782374,-0.259371
2503000000.0,-0.798025,-0.195118
2510000000.0,-0.802958,-0.166211
2517000000.0,-0.795675,-0.163241
2524000000.0,-0.797952,-0.070353
2531000000.0,-0.796656,-0.022207
2538000000.0,-0.79176,0.016391
2545000000.0,-0.785647,0.065452
2552000000.0,-0.769906,0.100872
2559000000.0,-0.758673,0.152883
2566000000.0,-0.739227,0.19486
2573000000.0,-0.716931,0.237231
2580000000.0,-0.674997,0.306804
2587000000.0,-0.662196,0.309492
2594000000.0,-0.635385,0.338239
2601000000.0,-0.601793,0.366824
2608000000.0,-0.560009,0.393741
2615000000.0,-0.520945,0.410214
2622000000.0,-0.482092,0.417349
2629000000.0,-0.441624,0.429086
2636000000.0,-0.403453,0.431105
2643000000.0,-0.370337,0.432037
2650000000.0,-0.33707,0.426076
2657000000.0,-0.317827,0.419771
2664000000.0,-0.302251,0.408743
2671000000.0,-0.287053,0.399942
2678000000.0,-0.276976,0.386282
2685000000.0,-0.265768,0.382718
2692000000.0,-0.266271,0.375942
2699000000.0,-0.2624,0.375089
2706000000.0,-0.261384,0.374327
2713000000.0,-0.269018,0.376059
2720000000.0,-0.285006,0.377052
2727000000.0,-0.279747,0.391071
2734000000.0,-0.283137,0.399209
2741000000.0,-0.282592,0.412543
2748000000.0,-0.275798,0.429644
2755000000.0,-0.273307,0.44758
2762000000.0,-0.266353,0.468209
2769000000.0,-0.259776,0.487753
2776000000.0,-0.23768,0.514069
2783000000.0,-0.21537,0.529613
2790000000.0,-0.184377,0.554329
2797000000.0,-0.156971,0.581891
2804000000.0,-0.130591,0.596516
2811000000.0,-0.106954,0.619926
2818000000.0,-0.074678,0.635164
2825000000.0,-0.048227,0.643473
2832000000.0,-0.007156,0.651401
2839000000.0,0.020946,0.658836
2846000000.0,0.045229,0.659039
2853000000.0,0.082215,0.655118
2860000000.0,0.108508,0.648439
2867000000.0,0.15362,0.635075
2874000000.0,0.188468,0.631792
2881000000.0,0.216801,0.619275
2888000000.0,0.252695,0.600552
2895000000.0,0.280621,0.583598
2902000000.0,0.298262,0.571957
2909000000.0,0.321519,0.557766
2916000000.0,0.347915,0.533404
2923000000.0,0.372311,0.51164
2930000000.0,0.38569,0.501142
2937000000.0,0.412089,0.477869
2944000000.0,0.428176,0.458296
2951000000.0,0.447622,0.436715
2958000000.0,0.455662,0.422705
2965000000.0,0.473183,0.389415
2972000000.0,0.487549,0.371939
2979000000.0,0.532904,0.287693
2986000000.0,0.515916,0.326207
2993000000.0,0.527167,0.301769
3000000000.0,0.537924,0.272048
