Frequency (Hz),Real Part,Imaginary Part
1600000000.0,-0.763516,0.551708
1607000000.0,-0.742122,0.584726
1614000000.0,-0.710419,0.622433
1621000000.0,-0.687555,0.650699
1628000000.0,-0.650425,0.685019
1635000000.0,-0.614012,0.712495
1642000000.0,-0.575937,0.741613
1649000000.0,-0.538986,0.763916
1656000000.0,-0.497645,0.785769
1663000000.0,-0.469637,0.804752
1670000000.0,-0.416297,0.830825
1677000000.0,-0.375904,0.84657
1684000000.0,-0.340174,0.860725
1691000000.0,-0.295413,0.877815
1698000000.0,-0.255819,0.886412
1705000000.0,-0.205154,0.898141
1712000000.0,-0.161073,0.908859
1719000000.0,-0.065423,0.912504
1726000000.0,-0.074108,0.917785
1733000000.0,-0.032371,0.912581
1740000000.0,0.011306,0.916571
1747000000.0,0.04956,0.907835
1754000000.0,0.087675,0.902131
1761000000.0,0.134314,0.886803
1768000000.0,0.184668,0.878071
1775000000.0,0.225661,0.867669
1782000000.0,0.260532,0.854252
1789000000.0,0.299926,0.834683
1796000000.0,0.341361,0.81595
1803000000.0,0.381523,0.798518
1810000000.0,0.41435,0.778158
1817000000.0,0.454972,0.74876
1824000000.0,0.481474,0.7351
1831000000.0,0.520019,0.693971
1838000000.0,0.551892,0.667327
1845000000.0,0.576539,0.641713
1852000000.0,0.598952,0.602552
1859000000.0,0.621685,0.566923
1866000000.0,0.649595,0.535487
1873000000.0,0.678113,0.499724
1880000000.0,0.695895,0.458629
1887000000.0,0.713976,0.407731
1894000000.0,0.735982,0.366515
1901000000.0,0.74297,0.330449
1908000000.0,0.748947,0.279812
1915000000.0,0.751873,0.239603
1922000000.0,0.754578,0.195399
1929000000.0,0.75232,0.153391
1936000000.0,0.743005,0.115087
1943000000.0,0.7369,0.073471
1950000000.0,0.720657,0.039119
1957000000.0,0.709396,0.007978
1964000000.0,0.686529,-0.030348
1971000000.0,0.662397,-0.055946
1978000000.0,0.640323,-0.084354
1985000000.0,0.616934,-0.103808
1992000000.0,0.597625,-0.11478
1999000000.0,0.576566,-0.128065
2006000000.0,0.560932,-0.134133
2013000000.0,0.547078,-0.137111
2020000000.0,0.536287,-0.137676
2027000000.0,0.530774,-0.139305
2034000000.0,0.527427,-0.141345
2041000000.0,0.532447,-0.1446
2048000000.0,0.537941,-0.152517
2055000000.0,0.550174,-0.166085
2062000000.0,0.555951,-0.18541
2069000000.0,0.565418,-0.207802
2076000000.0,0.571374,-0.235122
2083000000.0,0.580244,-0.263774
2090000000.0,0.578065,-0.301788
2097000000.0,0.576153,-0.336264
2104000000.0,0.558653,-0.380585
2111000000.0,0.54453,-0.419862
2118000000.0,0.521357,-0.457418
2125000000.0,0.491098,-0.493382
2132000000.0,0.465763,-0.520694
2139000000.0,0.41932,-0.551718
2146000000.0,0.372925,-0.575866
2153000000.0,0.333306,-0.589762
2160000000.0,0.282648,-0.600808
2167000000.0,0.239465,-0.605594
2174000000.0,0.188241,-0.604379
2181000000.0,0.147034,-0.597901
2188000000.0,0.103026,-0.582014
2195000000.0,0.068542,-0.564905
2202000000.0,0.031654,-0.541118
2209000000.0,0.010398,-0.516672
2216000000.0,-0.009481,-0.488569
2223000000.0,-0.019707,-0.460229
2230000000.0,-0.026524,-0.43147
2237000000.0,-0.029408,-0.405003
2244000000.0,-0.022778,-0.38013
2251000000.0,-0.013385,-0.359699
2258000000.0,0.002311,-0.342614
2265000000.0,0.017487,-0.330115
2272000000.0,0.040029,-0.323207
2279000000.0,0.059035,-0.325324
2286000000.0,0.073982,-0.335312
2293000000.0,0.084192,-0.356903
2300000000.0,0.092804,-0.379374
2307000000.0,0.0826,-0.408707
2314000000.0,0.090036,-0.438876
2321000000.0,0.087022,-0.46181
2328000000.0,0.070609,-0.484168
2335000000.0,0.05847,-0.512804
2342000000.0,0.115296,-0.528753
2349000000.0,0.02252,-0.55939
2356000000.0,-0.005619,-0.580376
2363000000.0,-0.02006,-0.604283
2370000000.0,-0.061771,-0.626512
2377000000.0,-0.104046,-0.643069
2384000000.0,-0.146912,-0.662298
2391000000.0,-0.267979,-0.635638
2398000000.0,-0.247365,-0.670402
2405000000.0,-0.291383,-0.668617
2412000000.0,-0.353481,-0.666778
2419000000.0,-0.392603,-0.652862
2426000000.0,-0.449051,-0.626543
2433000000.0,-0.495676,-0.605529
2440000000.0,-0.544126,-0.569943
2447000000.0,-0.576587,-0.546482
2454000000.0,-0.608639,-0.515697
2461000000.0,-0.643919,-0.471946
2468000000.0,-0.669464,-0.435087
2475000000.0,-0.693491,-0.387838
2482000000.0,-0.71143,-0.347919
2489000000.0,-0.728818,-0.301829
2496000000.0,-0.742947,-0.260322
2503000000.0,-0.755929,-0.167811
2510000000.0,-0.757115,-0.185695
2517000000.0,-0.75701,-0.140802
2524000000.0,-0.761453,-0.112342
2531000000.0,-0.766622,-0.077992
2538000000.0,-0.769793,-0.03168
2545000000.0,-0.767386,0.010576
2552000000.0,-0.763259,0.044422
2559000000.0,-0.763254,0.050511
2566000000.0,-0.750619,0.126396
2573000000.0,-0.736817,0.168824
2580000000.0,-0.731578,0.209651
2587000000.0,-0.741569,0.180524
2594000000.0,-0.70075,0.28181
2601000000.0,-0.681978,0.319901
2608000000.0,-0.66159,0.349662
2615000000.0,-0.639599,0.383278
2622000000.0,-0.605926,0.419429
2629000000.0,-0.57123,0.456941
2636000000.0,-0.529228,0.482618
2643000000.0,-0.49241,0.508062
2650000000.0,-0.455828,0.524919
2657000000.0,-0.428867,0.535468
2664000000.0,-0.387937,0.551976
2671000000.0,-0.34623,0.557715
2678000000.0,-0.309153,0.563207
2685000000.0,-0.272247,0.558989
2692000000.0,-0.236689,0.5557
2699000000.0,-0.216537,0.541354
2706000000.0,-0.197318,0.530302
2713000000.0,-0.18297,0.518654
2720000000.0,-0.167304,0.503218
2727000000.0,-0.156605,0.492117
2734000000.0,-0.154622,0.486396
2741000000.0,-0.144988,0.484594
2748000000.0,-0.137977,0.480875
2755000000.0,-0.13697,0.480581
2762000000.0,-0.140304,0.486158
2769000000.0,-0.12411,0.49386
2776000000.0,-0.112169,0.504454
2783000000.0,-0.097283,0.515269
2790000000.0,-0.083443,0.530075
2797000000.0,-0.068815,0.541211
2804000000.0,-0.045559,0.553656
2811000000.0,-0.028176,0.569888
2818000000.0,0.002254,0.581015
2825000000.0,0.027259,0.597516
2832000000.0,0.055139,0.595927
2839000000.0,0.074487,0.601295
2846000000.0,0.101833,0.604528
2853000000.0,0.136501,0.600227
2860000000.0,0.170395,0.588766
2867000000.0,0.194551,0.581324
2874000000.0,0.227085,0.570453
2881000000.0,0.25091,0.554428
2888000000.0,0.277629,0.542116
2895000000.0,0.309878,0.521194
2902000000.0,0.315693,0.514948
2909000000.0,0.347681,0.490278
2916000000.0,0.363604,0.47329
2923000000.0,0.386606,0.448697
2930000000.0,0.408264,0.428981
2937000000.0,0.423596,0.409999
2944000000.0,0.437259,0.395779
2951000000.0,0.44788,0.376579
2958000000.0,0.458499,0.358738
2965000000.0,0.461912,0.350767
2972000000.0,0.477245,0.323552
2979000000.0,0.489242,0.296365
2986000000.0,0.507298,0.271562
2993000000.0,0.512231,0.249435
3000000000.0,0.520084,0.22754
