Frequency (Hz),Real Part,Imaginary Part
1600000000.0,-0.767614,0.54968
1607000000.0,-0.743312,0.585219
1614000000.0,-0.715135,0.619154
1621000000.0,-0.684018,0.645636
1628000000.0,-0.646796,0.684416
1635000000.0,-0.609042,0.716356
1642000000.0,-0.572804,0.739894
1649000000.0,-0.533952,0.765979
1656000000.0,-0.492893,0.788682
1663000000.0,-0.460409,0.8088
1670000000.0,-0.421095,0.829836
1677000000.0,-0.374053,0.851186
1684000000.0,-0.341047,0.860924
1691000000.0,-0.291035,0.880562
1698000000.0,-0.249147,0.890437
1705000000.0,-0.208101,0.89979
1712000000.0,-0.161858,0.908399
1719000000.0,-0.119251,0.912927
1726000000.0,-0.077675,0.914911
1733000000.0,-0.031474,0.915067
1740000000.0,0.005184,0.915882
1747000000.0,0.045305,0.911477
1754000000.0,0.093355,0.906811
1761000000.0,0.13112,0.890232
1768000000.0,0.1792,0.881928
1775000000.0,0.224598,0.866531
1782000000.0,0.252355,0.856636
1789000000.0,0.2942,0.841035
1796000000.0,0.33586,0.822946
1803000000.0,0.379176,0.794486
1810000000.0,0.41365,0.777336
1817000000.0,0.449577,0.759381
1824000000.0,0.482907,0.735741
1831000000.0,0.527485,0.702581
1838000000.0,0.549704,0.669998
1845000000.0,0.577013,0.63805
1852000000.0,0.601267,0.614719
1859000000.0,0.620458,0.573895
1866000000.0,0.647509,0.542711
1873000000.0,0.680695,0.499483
1880000000.0,0.700229,0.46397
1887000000.0,0.718308,0.430107
1894000000.0,0.733748,0.375144
1901000000.0,0.750942,0.335288
1908000000.0,0.753017,0.293061
1915000000.0,0.763512,0.245299
1922000000.0,0.761424,0.210093
1929000000.0,0.76625,0.16365
1936000000.0,0.759182,0.115807
1943000000.0,0.751899,0.079211
1950000000.0,0.742632,0.041987
1957000000.0,0.729734,0.00434
1964000000.0,0.704802,-0.037065
1971000000.0,0.683538,-0.063571
1978000000.0,0.662267,-0.088935
1985000000.0,0.637482,-0.116889
1992000000.0,0.613265,-0.134414
1999000000.0,0.60951,-0.080955
2006000000.0,0.569216,-0.160879
2013000000.0,0.549206,-0.171213
2020000000.0,0.534114,-0.171043
2027000000.0,0.523877,-0.16993
2034000000.0,0.519302,-0.169771
2041000000.0,0.517216,-0.173588
2048000000.0,0.518506,-0.182127
2055000000.0,0.52515,-0.187968
2062000000.0,0.543352,-0.175948
2069000000.0,0.539894,-0.220781
2076000000.0,0.540097,-0.25318
2083000000.0,0.545867,-0.276514
2090000000.0,0.541073,-0.312743
2097000000.0,0.536456,-0.345015
2104000000.0,0.521737,-0.384632
2111000000.0,0.500784,-0.419816
2118000000.0,0.480749,-0.449401
2125000000.0,0.452164,-0.479274
2132000000.0,0.411775,-0.508285
2139000000.0,0.371976,-0.528609
2146000000.0,0.368048,-0.522616
2153000000.0,0.281826,-0.551024
2160000000.0,0.240508,-0.55047
2167000000.0,0.199045,-0.544587
2174000000.0,0.155383,-0.534527
2181000000.0,0.115281,-0.520107
2188000000.0,0.087305,-0.494824
2195000000.0,0.065324,-0.468719
2202000000.0,0.051807,-0.43949
2209000000.0,0.042009,-0.41049
2216000000.0,0.043053,-0.385847
2223000000.0,0.047988,-0.362594
2230000000.0,0.061595,-0.34236
2237000000.0,0.078533,-0.326913
2244000000.0,0.09779,-0.319163
2251000000.0,0.115464,-0.320176
2258000000.0,0.140063,-0.323016
2265000000.0,0.159791,-0.333559
2272000000.0,0.177106,-0.351584
2279000000.0,0.190001,-0.376798
2286000000.0,0.193531,-0.410223
2293000000.0,0.187513,-0.448012
2300000000.0,0.180778,-0.484253
2307000000.0,0.162596,-0.522002
2314000000.0,0.137482,-0.553444
2321000000.0,0.123015,-0.582981
2328000000.0,0.088708,-0.607152
2335000000.0,0.069599,-0.634917
2342000000.0,0.031597,-0.659057
2349000000.0,0.000696,-0.680959
2356000000.0,-0.052595,-0.700184
2363000000.0,-0.090721,-0.710989
2370000000.0,-0.140645,-0.718487
2377000000.0,-0.182546,-0.728923
2384000000.0,-0.236744,-0.725255
2391000000.0,-0.289118,-0.716268
2398000000.0,-0.343099,-0.71077
2405000000.0,-0.396222,-0.6948
2412000000.0,-0.446822,-0.679154
2419000000.0,-0.500789,-0.645243
2426000000.0,-0.534678,-0.620363
2433000000.0,-0.582788,-0.57913
2440000000.0,-0.612979,-0.555719
2447000000.0,-0.650609,-0.515682
2454000000.0,-0.682707,-0.472079
2461000000.0,-0.707066,-0.4287
2468000000.0,-0.732624,-0.387562
2475000000.0,-0.753023,-0.336318
2482000000.0,-0.762038,-0.303963
2489000000.0,-0.77417,-0.254255
2496000000.0,-0.785786,-0.209032
2503000000.0,-0.7873,-0.174562
2510000000.0,-0.788635,-0.12172
2517000000.0,-0.79015,-0.08131
2524000000.0,-0.785604,-0.045463
2531000000.0,-0.783465,0.006775
2538000000.0,-0.781394,0.049167
2545000000.0,-0.769121,0.081787
2552000000.0,-0.761473,0.124527
2559000000.0,-0.745977,0.167724
2566000000.0,-0.729605,0.21685
2573000000.0,-0.714344,0.24998
2580000000.0,-0.691638,0.281487
2587000000.0,-0.666905,0.324608
2594000000.0,-0.641186,0.352562
2601000000.0,-0.608451,0.38401
2608000000.0,-0.572729,0.40487
2615000000.0,-0.540744,0.43197
2622000000.0,-0.504602,0.450696
2629000000.0,-0.458488,0.471578
2636000000.0,-0.418042,0.475096
2643000000.0,-0.379603,0.480391
2650000000.0,-0.34816,0.483832
2657000000.0,-0.316258,0.47626
2664000000.0,-0.29502,0.470609
2671000000.0,-0.273573,0.458397
2678000000.0,-0.254922,0.449479
2685000000.0,-0.239975,0.446488
2692000000.0,-0.22657,0.437473
2699000000.0,-0.222013,0.427753
2706000000.0,-0.223184,0.421718
2713000000.0,-0.222384,0.416952
2720000000.0,-0.22311,0.419926
2727000000.0,-0.225304,0.425091
2734000000.0,-0.224868,0.431108
2741000000.0,-0.228599,0.441043
2748000000.0,-0.225314,0.451745
2755000000.0,-0.222853,0.46886
2762000000.0,-0.21217,0.482053
2769000000.0,-0.201507,0.50294
2776000000.0,-0.175887,0.524963
2783000000.0,-0.155937,0.541862
2790000000.0,-0.133782,0.561957
2797000000.0,-0.098359,0.579494
2804000000.0,-0.085756,0.592667
2811000000.0,-0.047935,0.61092
2818000000.0,-0.015095,0.62281
2825000000.0,0.010662,0.632209
2832000000.0,0.045369,0.64106
2839000000.0,0.06986,0.639284
2846000000.0,0.101034,0.635777
2853000000.0,0.131653,0.633263
2860000000.0,0.168463,0.621224
2867000000.0,0.203927,0.614025
2874000000.0,0.236109,0.59267
2881000000.0,0.25737,0.580319
2888000000.0,0.294249,0.55624
2895000000.0,0.318561,0.547768
2902000000.0,0.334937,0.529997
2909000000.0,0.356534,0.513388
2916000000.0,0.376552,0.490092
2923000000.0,0.405711,0.463161
2930000000.0,0.422879,0.443964
2937000000.0,0.434876,0.426397
2944000000.0,0.445553,0.409449
2951000000.0,0.467178,0.381299
2958000000.0,0.472961,0.36624
2965000000.0,0.481397,0.349185
2972000000.0,0.497498,0.32105
2979000000.0,0.504505,0.305144
2986000000.0,0.521925,0.275144
2993000000.0,0.523962,0.251895
3000000000.0,0.534656,0.227558
