Frequency (Hz),Real Part,Imaginary Part
1600000000.0,-0.782194,0.530336
1607000000.0,-0.757864,0.55968
1614000000.0,-0.731924,0.595517
1621000000.0,-0.701142,0.62591
1628000000.0,-0.671965,0.660312
1635000000.0,-0.635875,0.693138
1642000000.0,-0.599077,0.721519
1649000000.0,-0.562752,0.744296
1656000000.0,-0.506659,0.779447
1663000000.0,-0.490637,0.795069
1670000000.0,-0.448517,0.817542
1677000000.0,-0.409747,0.840084
1684000000.0,-0.364728,0.855459
1691000000.0,-0.32755,0.866765
1698000000.0,-0.282786,0.88422
1705000000.0,-0.242779,0.89915
1712000000.0,-0.195209,0.901809
1719000000.0,-0.154356,0.911479
1726000000.0,-0.108057,0.919686
1733000000.0,-0.06729,0.918231
1740000000.0,-0.018264,0.920059
1747000000.0,0.012022,0.918368
1754000000.0,0.06306,0.909477
1761000000.0,0.105947,0.906878
1768000000.0,0.144405,0.892246
1775000000.0,0.186334,0.886613
1782000000.0,0.227086,0.873666
1789000000.0,0.267316,0.858756
1796000000.0,0.310774,0.838586
1803000000.0,0.35502,0.818075
1810000000.0,0.381301,0.805141
1817000000.0,0.430043,0.777816
1824000000.0,0.453553,0.763662
1831000000.0,0.500202,0.722436
1838000000.0,0.525392,0.7
1845000000.0,0.553743,0.676729
1852000000.0,0.562728,0.676187
1859000000.0,0.607657,0.608261
1866000000.0,0.631707,0.577451
1873000000.0,0.662233,0.542036
1880000000.0,0.689356,0.499901
1887000000.0,0.716879,0.455227
1894000000.0,0.733515,0.420881
1901000000.0,0.754175,0.374616
1908000000.0,0.761426,0.32255
1915000000.0,0.767861,0.285511
1922000000.0,0.771168,0.250788
1929000000.0,0.781815,0.198149
1936000000.0,0.778255,0.162496
1943000000.0,0.774834,0.118473
1950000000.0,0.769865,0.070815
1957000000.0,0.76384,0.033752
1964000000.0,0.744357,-0.004605
1971000000.0,0.725437,-0.048533
1978000000.0,0.704152,-0.078221
1985000000.0,0.682144,-0.108812
1992000000.0,0.657498,-0.131676
1999000000.0,0.630733,-0.16281
2006000000.0,0.60733,-0.175643
2013000000.0,0.581904,-0.189708
2020000000.0,0.559808,-0.198472
2027000000.0,0.539403,-0.203448
2034000000.0,0.524174,-0.199903
2041000000.0,0.513285,-0.200936
2048000000.0,0.506622,-0.203734
2055000000.0,0.506399,-0.206524
2062000000.0,0.507601,-0.213984
2069000000.0,0.512683,-0.222332
2076000000.0,0.518319,-0.233419
2083000000.0,0.524237,-0.254648
2090000000.0,0.525559,-0.280886
2097000000.0,0.529944,-0.310025
2104000000.0,0.528555,-0.338994
2111000000.0,0.480064,-0.417093
2118000000.0,0.502338,-0.412556
2125000000.0,0.484308,-0.446987
2132000000.0,0.456753,-0.483498
2139000000.0,0.423031,-0.511835
2146000000.0,0.38455,-0.538014
2153000000.0,0.345343,-0.558154
2160000000.0,0.29443,-0.575559
2167000000.0,0.258342,-0.581512
2174000000.0,0.203777,-0.587587
2181000000.0,0.164578,-0.582146
2188000000.0,0.118945,-0.571743
2195000000.0,0.078811,-0.555327
2202000000.0,0.05237,-0.531526
2209000000.0,0.025085,-0.507345
2216000000.0,0.003524,-0.478796
2223000000.0,-0.009471,-0.448882
2230000000.0,-0.023437,-0.420087
2237000000.0,-0.021934,-0.393394
2244000000.0,-0.007395,-0.366319
2251000000.0,-0.012742,-0.343247
2258000000.0,0.002272,-0.319955
2265000000.0,0.018876,-0.303984
2272000000.0,0.041928,-0.295002
2279000000.0,0.066654,-0.289475
2286000000.0,0.088056,-0.296984
2293000000.0,0.105979,-0.311203
2300000000.0,0.125657,-0.334474
2307000000.0,0.137811,-0.363711
2314000000.0,0.146628,-0.397849
2321000000.0,0.151639,-0.436128
2328000000.0,0.144468,-0.472647
2335000000.0,0.133065,-0.512149
2342000000.0,0.111553,-0.551355
2349000000.0,0.08745,-0.583113
2356000000.0,0.049024,-0.611179
2363000000.0,0.085128,-0.638162
2370000000.0,-0.024938,-0.658065
2377000000.0,-0.079304,-0.67241
2384000000.0,-0.118136,-0.687325
2391000000.0,-0.171816,-0.695309
2398000000.0,-0.217448,-0.692103
2405000000.0,-0.269514,-0.692405
2412000000.0,-0.314743,-0.695309
2419000000.0,-0.354663,-0.684362
2426000000.0,-0.415578,-0.661245
2433000000.0,-0.467541,-0.636654
2440000000.0,-0.541235,-0.590056
2447000000.0,-0.5584,-0.586128
2454000000.0,-0.597387,-0.555134
2461000000.0,-0.625047,-0.520254
2468000000.0,-0.663946,-0.480329
2475000000.0,-0.695223,-0.436647
2482000000.0,-0.720689,-0.393651
2489000000.0,-0.737355,-0.353266
2496000000.0,-0.752508,-0.312978
2503000000.0,-0.765807,-0.280751
2510000000.0,-0.772793,-0.230943
2517000000.0,-0.78113,-0.181451
2524000000.0,-0.787123,-0.140789
2531000000.0,-0.791457,-0.100066
2538000000.0,-0.795321,-0.051868
2545000000.0,-0.794985,-0.024686
2552000000.0,-0.78781,0.027628
2559000000.0,-0.787348,0.066548
2566000000.0,-0.774114,0.131904
2573000000.0,-0.769228,0.165123
2580000000.0,-0.756234,0.190169
2587000000.0,-0.767762,0.176355
2594000000.0,-0.728831,0.270783
2601000000.0,-0.704126,0.308565
2608000000.0,-0.683085,0.342838
2615000000.0,-0.657429,0.375781
2622000000.0,-0.623043,0.419326
2629000000.0,-0.585213,0.453269
2636000000.0,-0.545639,0.479784
2643000000.0,-0.514481,0.503704
2650000000.0,-0.483021,0.519278
2657000000.0,-0.432097,0.535512
2664000000.0,-0.399257,0.544613
2671000000.0,-0.34621,0.551193
2678000000.0,-0.316192,0.549334
2685000000.0,-0.281007,0.543543
2692000000.0,-0.244095,0.537663
2699000000.0,-0.225281,0.524733
2706000000.0,-0.202141,0.509348
2713000000.0,-0.192658,0.4932
2720000000.0,-0.175597,0.483261
2727000000.0,-0.17241,0.47167
2734000000.0,-0.167921,0.459884
2741000000.0,-0.165818,0.452551
2748000000.0,-0.165166,0.44931
2755000000.0,-0.163176,0.448201
2762000000.0,-0.164302,0.455799
2769000000.0,-0.161776,0.460065
2776000000.0,-0.14857,0.476395
2783000000.0,-0.135541,0.48728
2790000000.0,-0.130312,0.505088
2797000000.0,-0.106832,0.527085
2804000000.0,-0.09959,0.544546
2811000000.0,-0.075719,0.564774
2818000000.0,-0.058607,0.58298
2825000000.0,-0.031631,0.597291
2832000000.0,-0.006785,0.610334
2839000000.0,0.023583,0.61485
2846000000.0,0.043253,0.624745
2853000000.0,0.081907,0.624549
2860000000.0,0.108358,0.623247
2867000000.0,0.149214,0.612727
2874000000.0,0.187212,0.603487
2881000000.0,0.212059,0.590333
2888000000.0,0.24623,0.581603
2895000000.0,0.273915,0.573456
2902000000.0,0.289225,0.560905
2909000000.0,0.319774,0.541447
2916000000.0,0.345814,0.521093
2923000000.0,0.374347,0.504121
2930000000.0,0.388633,0.487825
2937000000.0,0.411913,0.465321
2944000000.0,0.429211,0.448063
2951000000.0,0.442775,0.42952
2958000000.0,0.455819,0.412153
2965000000.0,0.471188,0.389155
2972000000.0,0.480221,0.369822
2979000000.0,0.499639,0.340727
2986000000.0,0.515731,0.316146
2993000000.0,0.52314,0.28837
3000000000.0,0.538079,0.260917
