Frequency (Hz),Real Part,Imaginary Part
1600000000.0,-0.786612,0.523528
1607000000.0,-0.767282,0.552204
1614000000.0,-0.732611,0.59606
1621000000.0,-0.70513,0.626021
1628000000.0,-0.676714,0.656276
1635000000.0,-0.646707,0.680334
1642000000.0,-0.605689,0.715259
1649000000.0,-0.566482,0.74228
1656000000.0,-0.532479,0.764917
1663000000.0,-0.497255,0.790576
1670000000.0,-0.460205,0.809017
1677000000.0,-0.422412,0.831114
1684000000.0,-0.37742,0.849351
1691000000.0,-0.337491,0.866413
1698000000.0,-0.291358,0.880165
1705000000.0,-0.252266,0.894548
1712000000.0,-0.209866,0.905164
1719000000.0,-0.164931,0.915774
1726000000.0,-0.12155,0.920313
1733000000.0,-0.085861,0.922188
1740000000.0,-0.038227,0.923618
1747000000.0,0.004348,0.923266
1754000000.0,0.107847,0.904941
1761000000.0,0.098359,0.906028
1768000000.0,0.143817,0.893471
1775000000.0,0.18339,0.88733
1782000000.0,0.22679,0.870332
1789000000.0,0.262352,0.865141
1796000000.0,0.303561,0.841849
1803000000.0,0.341762,0.827948
1810000000.0,0.379852,0.806358
1817000000.0,0.410461,0.790672
1824000000.0,0.457412,0.77181
1831000000.0,0.41398,0.791039
1838000000.0,0.525801,0.707694
1845000000.0,0.552574,0.68209
1852000000.0,0.578706,0.649459
1859000000.0,0.610079,0.62165
1866000000.0,0.635328,0.580188
1873000000.0,0.662824,0.553626
1880000000.0,0.681614,0.522929
1887000000.0,0.71164,0.468579
1894000000.0,0.732831,0.432433
1901000000.0,0.752241,0.388178
1908000000.0,0.757998,0.344008
1915000000.0,0.768902,0.308295
1922000000.0,0.777935,0.261294
1929000000.0,0.790268,0.214281
1936000000.0,0.785437,0.175892
1943000000.0,0.790398,0.129612
1950000000.0,0.785032,0.085311
1957000000.0,0.775828,0.043998
1964000000.0,0.767786,0.00229
1971000000.0,0.74888,-0.042628
1978000000.0,0.733299,-0.076788
1985000000.0,0.714377,-0.105258
1992000000.0,0.694392,-0.13951
1999000000.0,0.664518,-0.171482
2006000000.0,0.608525,-0.260323
2013000000.0,0.611291,-0.217801
2020000000.0,0.582858,-0.231231
2027000000.0,0.558348,-0.240124
2034000000.0,0.533508,-0.241505
2041000000.0,0.515406,-0.25006
2048000000.0,0.501456,-0.249706
2055000000.0,0.487039,-0.254079
2062000000.0,0.481177,-0.253277
2069000000.0,0.478152,-0.256421
2076000000.0,0.475764,-0.263549
2083000000.0,0.477328,-0.273547
2090000000.0,0.480222,-0.290476
2097000000.0,0.479764,-0.313095
2104000000.0,0.479233,-0.334645
2111000000.0,0.474444,-0.362606
2118000000.0,0.464188,-0.390988
2125000000.0,0.447223,-0.42265
2132000000.0,0.426606,-0.452608
2139000000.0,0.399134,-0.478374
2146000000.0,0.368317,-0.497564
2153000000.0,0.328476,-0.516562
2160000000.0,0.285308,-0.528803
2167000000.0,0.246569,-0.535979
2174000000.0,0.197646,-0.536356
2181000000.0,0.164431,-0.529434
2188000000.0,0.12529,-0.515808
2195000000.0,0.094769,-0.495394
2202000000.0,0.067821,-0.471527
2209000000.0,0.053713,-0.442452
2216000000.0,0.042543,-0.415342
2223000000.0,0.039353,-0.387557
2230000000.0,0.041212,-0.363215
2237000000.0,0.055847,-0.34234
2244000000.0,0.071372,-0.326916
2251000000.0,0.090449,-0.315495
2258000000.0,0.113395,-0.309042
2265000000.0,0.135823,-0.31125
2272000000.0,0.157042,-0.319608
2279000000.0,0.179595,-0.336124
2286000000.0,0.191882,-0.364374
2293000000.0,0.204698,-0.399234
2300000000.0,0.207386,-0.440384
2307000000.0,0.204464,-0.481239
2314000000.0,0.198863,-0.528234
2321000000.0,0.171414,-0.572209
2328000000.0,0.149362,-0.605017
2335000000.0,0.119601,-0.646105
2342000000.0,0.0746,-0.677836
2349000000.0,0.035574,-0.703444
2356000000.0,-0.017014,-0.723649
2363000000.0,-0.066093,-0.740903
2370000000.0,-0.120092,-0.744813
2377000000.0,-0.176632,-0.746859
2384000000.0,-0.228415,-0.747848
2391000000.0,-0.288489,-0.741023
2398000000.0,-0.23471,-0.771053
2405000000.0,-0.473859,-0.651168
2412000000.0,-0.440349,-0.690135
2419000000.0,-0.492707,-0.657378
2426000000.0,-0.527602,-0.633776
2433000000.0,-0.568676,-0.599636
2440000000.0,-0.614351,-0.56518
2447000000.0,-0.649114,-0.526789
2454000000.0,-0.678571,-0.487911
2461000000.0,-0.707769,-0.440892
2468000000.0,-0.73314,-0.399713
2475000000.0,-0.754949,-0.353327
2482000000.0,-0.770285,-0.30413
2489000000.0,-0.780364,-0.260032
2496000000.0,-0.792359,-0.201933
2503000000.0,-0.796633,-0.164278
2510000000.0,-0.798616,-0.111423
2517000000.0,-0.793847,-0.068726
2524000000.0,-0.789311,-0.017403
2531000000.0,-0.784443,0.034937
2538000000.0,-0.773357,0.079258
2545000000.0,-0.756558,0.11738
2552000000.0,-0.736338,0.16462
2559000000.0,-0.710832,0.211931
2566000000.0,-0.686674,0.241631
2573000000.0,-0.655254,0.275142
2580000000.0,-0.618438,0.314717
2587000000.0,-0.584175,0.341994
2594000000.0,-0.549043,0.354551
2601000000.0,-0.506536,0.369303
2608000000.0,-0.466802,0.374874
2615000000.0,-0.430306,0.377914
2622000000.0,-0.393947,0.376936
2629000000.0,-0.376913,0.362084
2636000000.0,-0.338987,0.361219
2643000000.0,-0.321769,0.347456
2650000000.0,-0.311077,0.331011
2657000000.0,-0.305981,0.322466
2664000000.0,-0.305698,0.316229
2671000000.0,-0.302193,0.313129
2678000000.0,-0.303981,0.308144
2685000000.0,-0.305641,0.31397
2692000000.0,-0.311976,0.315728
2699000000.0,-0.315793,0.325931
2706000000.0,-0.323291,0.333316
2713000000.0,-0.33029,0.349382
2720000000.0,-0.33715,0.361396
2727000000.0,-0.343723,0.373103
2734000000.0,-0.339171,0.399619
2741000000.0,-0.338991,0.420237
2748000000.0,-0.331385,0.442693
2755000000.0,-0.325426,0.464751
2762000000.0,-0.308658,0.487444
2769000000.0,-0.282658,0.516234
2776000000.0,-0.268817,0.53444
2783000000.0,-0.233081,0.557371
2790000000.0,-0.214988,0.576796
2797000000.0,-0.173923,0.605302
2804000000.0,-0.139379,0.62762
2811000000.0,-0.108572,0.64482
2818000000.0,-0.075668,0.661255
2825000000.0,-0.047239,0.67247
2832000000.0,-0.011551,0.668485
2839000000.0,0.014285,0.677254
2846000000.0,0.052268,0.672218
2853000000.0,0.086232,0.670258
2860000000.0,0.114393,0.664839
2867000000.0,0.155534,0.649438
2874000000.0,0.189305,0.637458
2881000000.0,0.223011,0.62129
2888000000.0,0.250333,0.607818
2895000000.0,0.287736,0.589639
2902000000.0,0.303835,0.575387
2909000000.0,0.329271,0.557192
2916000000.0,0.349982,0.540405
2923000000.0,0.374184,0.517559
2930000000.0,0.395201,0.49855
2937000000.0,0.415573,0.476744
2944000000.0,0.430998,0.459555
2951000000.0,0.452012,0.434561
2958000000.0,0.461646,0.417585
2965000000.0,0.472617,0.397547
2972000000.0,0.485474,0.377473
2979000000.0,0.497848,0.349995
2986000000.0,0.506705,0.325379
2993000000.0,0.520878,0.304566
3000000000.0,0.533789,0.272938
