Freq (Hz),s21avg
1600000000.0,-0.057222781031630976
1601401401.4014015,-0.06216203626755026
1602802802.8028028,-0.06710129150346868
1604204204.2042043,-0.0720008736247621
1605605605.6056056,-0.07689067346972335
1607007007.0070071,-0.08178047331468542
1608408408.4084084,-0.08667027315964665
1609809809.80981,-0.0915600730046087
1611211211.2112112,-0.09528505153893697
1612612612.6126127,-0.09873181209917022
1614014014.014014,-0.10217857265940275
1615415415.4154155,-0.10562533321963595
1616816816.8168168,-0.10907209377986861
1618218218.2182183,-0.11123705804253398
1619619619.6196196,-0.1131056404476723
1621021021.0210211,-0.11497422285281086
1622422422.4224224,-0.1168428052579492
1623823823.823824,-0.11871138766308781
1625225225.2252252,-0.11970056974467828
1626626626.6266267,-0.12049303819540196
1628028028.028028,-0.12128550664612557
1629429429.4294295,-0.12207797509684921
1630830830.8308308,-0.12287044354757275
1632232232.2322323,-0.1256064230157235
1633633633.6336336,-0.12876268496854715
1635035035.0350351,-0.13191894692137132
1636436436.4364364,-0.13507520887419508
1637837837.837838,-0.13823147082701925
1639239239.2392392,-0.14153440033260825
1640640640.6406407,-0.14486796832117402
1642042042.042042,-0.14820153630973912
1643443443.4434435,-0.1515351042983049
1644844844.8448448,-0.15486867228687007
1646246246.2462463,-0.15545317179542617
1647647647.6476476,-0.15548336501829907
1649049049.0490491,-0.15551355824117188
1650450450.4504504,-0.15554375146404487
1651851851.851852,-0.15557394468691763
1653253253.2532532,-0.15697008272250454
1654654654.6546547,-0.15863183926682292
1656056056.056056,-0.16029359581114103
1657457457.4574575,-0.1619553523554594
1658858858.8588588,-0.16361710889977743
1660260260.2602603,-0.1637236711417557
1661661661.6616616,-0.16353884219291318
1663063063.0630631,-0.16335401324407048
1664464464.4644644,-0.16316918429522784
1665865865.865866,-0.16298435534638528
1667267267.2672672,-0.1635614803731457
1668668668.6686687,-0.16427603052676182
1670070070.07007,-0.16499058068037806
1671471471.4714715,-0.16570513083399419
1672872872.8728728,-0.16641968098761034
1674274274.2742743,-0.16745783643394005
1675675675.6756756,-0.16855211586790517
1677077077.0770772,-0.16964639530187062
1678478478.4784784,-0.1707406747358358
1679879879.87988,-0.17183495416980107
1681281281.2812812,-0.1702284197878878
1682682682.6826828,-0.16817195981928798
1684084084.084084,-0.16611549985068869
1685485485.4854856,-0.16405903988208884
1686886886.8868868,-0.1620025799134894
1688288288.2882884,-0.16251053951803207
1689689689.6896896,-0.1634283541645361
1691091091.0910912,-0.16434616881104033
1692492492.4924924,-0.16526398345754437
1693893893.893894,-0.16618179810404843
1695295295.2952952,-0.16740396267170812
1696696696.6966968,-0.16867273433061503
1698098098.098098,-0.16994150598952162
1699499499.4994996,-0.17121027764842867
1700900900.9009008,-0.17247904930733532
1702302302.3023024,-0.17201730077395605
1703703703.7037036,-0.17130198599364474
1705105105.1051052,-0.170586671213333
1706506506.5065064,-0.1698713564330216
1707907907.907908,-0.16915604165271003
1709309309.3093092,-0.1705830454113744
1710710710.7107108,-0.17230995422770667
1712112112.112112,-0.17403686304403884
1713513513.5135136,-0.17576377186037104
1714914914.9149148,-0.17749068067670307
1716316316.3163164,-0.1775589253623164
1717717717.7177176,-0.1774056889386587
1719119119.1191192,-0.17725245251500124
1720520520.5205204,-0.17709921609134371
1721921921.921922,-0.17694597966768602
1723323323.3233232,-0.1767232310065299
1724724724.7247248,-0.17649164445043486
1726126126.126126,-0.17626005789433966
1727527527.5275276,-0.17602847133824465
1728928928.9289289,-0.17579688478214936
1730330330.3303304,-0.17756066663039685
1731731731.7317317,-0.17956553872072903
1733133133.1331332,-0.18157041081106143
1734534534.5345345,-0.18357528290139338
1735935935.935936,-0.1855801549917259
1737337337.3373373,-0.18665245140764866
1738738738.7387388,-0.18761789452516622
1740140140.14014,-0.18858333764268365
1741541541.5415416,-0.18954878076020137
1742942942.9429429,-0.19051422387771877
1744344344.3443444,-0.19166891373753436
1745745745.7457457,-0.19284411826305217
1747147147.1471472,-0.19401932278857006
1748548548.5485485,-0.19519452731408798
1749949949.94995,-0.196369731839606
1751351351.3513513,-0.19775119858036036
1752752752.7527528,-0.1991537644542431
1754154154.154154,-0.20055633032812573
1755555555.5555556,-0.20195889620200855
1756956956.9569569,-0.20336146207589112
1758358358.3583584,-0.2047541943603127
1759759759.75976,-0.20614598015366373
1761161161.1611612,-0.20753776594701442
1762562562.5625625,-0.20892955174036523
1763963963.963964,-0.21032133753371623
1765365365.3653655,-0.21140014800228926
1766766766.7667668,-0.21245070470190053
1768168168.168168,-0.21350126140151185
1769569569.5695696,-0.21455181810112314
1770970970.970971,-0.2156023748007346
1772372372.3723724,-0.218018974363396
1773773773.7737737,-0.22055081805395282
1775175175.1751752,-0.22308266174450989
1776576576.5765767,-0.22561450543506723
1777977977.977978,-0.2281463491256238
1779379379.3793793,-0.2311590151485103
1780780780.7807808,-0.23420943339938863
1782182182.1821823,-0.23725985165026706
1783583583.5835836,-0.24031026990114468
1784984984.9849849,-0.2433606881520226
1786386386.3863864,-0.24573724950124462
1787787787.787788,-0.24806480044719212
1789189189.1891892,-0.2503923513931395
1790590590.5905905,-0.25271990233908675
1791991991.991992,-0.25504745328503436
1793393393.3933935,-0.257475690401993
1794794794.7947948,-0.25991067430889925
1796196196.196196,-0.2623456582158056
1797597597.5975976,-0.2647806421227122
1798998998.998999,-0.2672156260296192
1800400400.4004004,-0.2677058753030531
1801801801.8018017,-0.26807682330094645
1803203203.2032032,-0.26844777129883984
1804604604.6046047,-0.26881871929673307
1806006006.006006,-0.26918966729462634
1807407407.4074075,-0.2718319615116007
1808808808.8088088,-0.27460086793335436
1810210210.2102103,-0.27736977435510857
1811611611.6116116,-0.28013868077686227
1813013013.0130131,-0.2829075871986165
1814414414.4144144,-0.2837295075313618
1815815815.815816,-0.28445369006211757
1817217217.2172172,-0.2851778725928732
1818618618.6186187,-0.28590205512362904
1820020020.02002,-0.28662623765438466
1821421421.4214215,-0.2891309043199376
1822822822.8228228,-0.2917151831051822
1824224224.2242243,-0.29429946189042716
1825625625.6256256,-0.29688374067567197
1827027027.0270271,-0.29946801946091706
1828428428.4284284,-0.301867385707664
1829829829.82983,-0.30425948767052546
1831231231.2312312,-0.3066515896333864
1832632632.6326327,-0.30904369159624784
1834034034.034034,-0.3114357935591089
1835435435.4354355,-0.3133077671259131
1836836836.8368368,-0.31516210192990596
1838238238.2382383,-0.3170164367338994
1839639639.6396396,-0.3188707715378924
1841041041.0410411,-0.3207251063418857
1842442442.4424424,-0.32194804553237943
1843843843.843844,-0.3231529300036229
1845245245.2452452,-0.32435781447486606
1846646646.6466467,-0.32556269894610973
1848048048.048048,-0.32676758341735296
1849449449.4494495,-0.3312057053361355
1850850850.8508508,-0.33571926505045957
1852252252.2522523,-0.3402328247647843
1853653653.6536536,-0.34474638447910855
1855055055.0550551,-0.34925994419343326
1856456456.4564564,-0.35039770947383436
1857857857.857858,-0.3514742966429305
1859259259.2592592,-0.3525508838120266
1860660660.6606607,-0.35362747098112285
1862062062.062062,-0.354704058150219
1863463463.4634635,-0.3587491103358625
1864864864.8648648,-0.3628326515330652
1866266266.2662663,-0.36691619273026865
1867667667.6676676,-0.37099973392747143
1869069069.0690691,-0.37508327512467476
1870470470.4704704,-0.37685526346979337
1871871871.871872,-0.3786090799622152
1873273273.2732732,-0.3803628964546366
1874674674.6746747,-0.38211671294705857
1876076076.076076,-0.38387052943947986
1877477477.4774776,-0.38587230387868515
1878878878.8788788,-0.3878747745495901
1880280280.2802804,-0.3898772452204953
1881681681.6816816,-0.39187971589139986
1883083083.0830832,-0.3938855731516294
1884484484.4844844,-0.3974274026063093
1885885885.885886,-0.40096923206098956
1887287287.2872872,-0.40451106151566923
1888688688.6886888,-0.40805289097034964
1890090090.09009,-0.4115976994369907
1891491491.4914916,-0.4155532805529682
1892892892.8928928,-0.41950886166894436
1894294294.2942944,-0.4234644427849218
1895695695.6956956,-0.4274200239008982
1897097097.0970972,-0.4313593706900125
1898498498.4984984,-0.43398426927625666
1899899899.8999,-0.4366091678625014
1901301301.3013012,-0.43923406644874563
1902702702.7027028,-0.4418589650349902
1904104104.104104,-0.44453800503211915
1905505505.5055056,-0.4503106600651588
1906906906.9069068,-0.45608331509819794
1908308308.3083084,-0.46185597013123797
1909709709.7097096,-0.46762862516427695
1911111111.1111112,-0.4733644123235494
1912512512.5125124,-0.4774763523220325
1913913913.913914,-0.4815882923205163
1915315315.3153152,-0.4857002323189994
1916716716.7167168,-0.48981217231748336
1918118118.1181183,-0.4940157721130101
1919519519.5195196,-0.5014975575909999
1920920920.9209208,-0.5089793430689895
1922322322.3223224,-0.5164611285469805
1923723723.723724,-0.5239429140249711
1925125125.1251252,-0.5314071902917615
1926526526.5265265,-0.5383452114467887
1927927927.927928,-0.5452832326018163
1929329329.3293295,-0.5522212537568449
1930730730.7307308,-0.5591592749118717
1932132132.132132,-0.5660213156608724
1933533533.5335336,-0.5709168527829449
1934934934.934935,-0.5758123899050177
1936336336.3363364,-0.580707927027089
1937737737.7377377,-0.5856034641491604
1939139139.1391392,-0.5905321038249992
1940540540.5405407,-0.5962120616524287
1941941941.941942,-0.6018920194798578
1943343343.3433433,-0.6075719773072863
1944744744.7447448,-0.6132519351347161
1946146146.1461463,-0.6188842899800934
1947547547.5475476,-0.6235557100521811
1948948948.9489489,-0.6282271301242688
1950350350.3503504,-0.6328985501963578
1951751751.751752,-0.6375699702684462
1953153153.1531532,-0.6424037372694117
1954554554.5545545,-0.6501852517644389
1955955955.955956,-0.6579667662594673
1957357357.3573575,-0.6657482807544962
1958758758.7587588,-0.6735297952495236
1960160160.16016,-0.6812277812932558
1961561561.5615616,-0.6875490081782254
1962962962.962963,-0.6938702350631948
1964364364.3643644,-0.7001914619481632
1965765765.7657657,-0.7065126888331318
1967167167.1671672,-0.7125698191595393
1968568568.5685687,-0.7146451206657073
1969969969.96997,-0.7167204221718747
1971371371.3713713,-0.7187957236780417
1972772772.7727728,-0.7208710251842098
1974174174.1741743,-0.7233527173238844
1975575575.5755756,-0.7314754984953222
1976976976.9769769,-0.7395982796667602
1978378378.3783784,-0.7477210608381997
1979779779.77978,-0.7558438420096389
1981181181.1811812,-0.7639815515006281
1982582582.5825825,-0.7723110961007488
1983983983.983984,-0.7806406407008716
1985385385.3853855,-0.7889701853009945
1986786786.7867868,-0.7972997299011152
1988188188.188188,-0.8056469961407341
1989589589.5895896,-0.8142060956566247
1990990990.990991,-0.8227651951725156
1992392392.3923924,-0.8313242946884057
1993793793.7937937,-0.8398833942042957
1995195195.1951952,-0.8481349280668526
1996596596.5965967,-0.8529523529679756
1997997997.997998,-0.8577697778690972
1999399399.3993993,-0.8625872027702186
2000800800.8008008,-0.8674046276713411
2002202202.2022023,-0.8727411778956505
2003603603.6036036,-0.8835118748516585
2005005005.0050051,-0.8942825718076682
2006406406.4064064,-0.9050532687636764
2007807807.807808,-0.9158239657196867
2009209209.2092092,-0.9264202776840953
2010610610.6106107,-0.9352995972908685
2012012012.012012,-0.9441789168976404
2013413413.4134135,-0.9530582365044137
2014814814.8148148,-0.9619375561111864
2016216216.2162163,-0.9707678182557729
2017617617.6176176,-0.9791424314614452
2019019019.0190191,-0.9875170446671191
2020420420.4204204,-0.9958916578727917
2021821821.821822,-1.004266271078466
2023223223.2232232,-1.0129750233237498
2024624624.6246247,-1.0246190987565387
2026026026.026026,-1.036263174189327
2027427427.4274275,-1.0479072496221162
2028828828.8288288,-1.0595513250549042
2030230230.2302303,-1.070806734173972
2031631631.6316316,-1.078825191008612
2033033033.0330331,-1.086843647843255
2034434434.4344344,-1.094862104677896
2035835835.835836,-1.1028805615125388
2037237237.2372372,-1.1111850182049339
2038638638.6386387,-1.1217524933796323
2040040040.04004,-1.1323199685543295
2041441441.4414415,-1.1428874437290277
2042842842.8428428,-1.1534549189037242
2044244244.2442443,-1.1642797673810485
2045645645.6456456,-1.1770432604962324
2047047047.0470471,-1.1898067536114172
2048448448.4484484,-1.2025702467266004
2049849849.84985,-1.2153337398417863
2051251251.2512512,-1.2275786762281635
2052652652.6526527,-1.236098660924314
2054054054.054054,-1.244618645620463
2055455455.4554555,-1.2531386303166143
2056856856.8568568,-1.261658615012763
2058258258.2582583,-1.2708342068729837
2059659659.6596596,-1.2845083359407499
2061061061.0610611,-1.2981824650085179
2062462462.4624624,-1.3118565940762843
2063863863.863864,-1.3255307231440525
2065265265.2652652,-1.3388035817134178
2066666666.6666667,-1.3494423817463894
2068068068.068068,-1.3600811817793592
2069469469.4694695,-1.37071998181233
2070870870.8708708,-1.3813587818452995
2072272272.2722723,-1.3925719257745974
2073673673.6736736,-1.4073969058099463
2075075075.0750751,-1.4222218858452975
2076476476.4764764,-1.4370468658806466
2077877877.877878,-1.4518718459159978
2079279279.2792792,-1.4663613296759188
2080680680.6806808,-1.4788269828798395
2082082082.082082,-1.4912926360837588
2083483483.4834836,-1.5037582892876806
2084884884.8848848,-1.5162239424916004
2086286286.2862864,-1.5289226728047551
2087687687.6876876,-1.5429717302833623
2089089089.0890892,-1.5570207877619695
2090490490.4904904,-1.571069845240576
2091891891.891892,-1.5851189027191839
2093293293.2932935,-1.5991885428458723
2094694694.6946948,-1.6133728345431362
2096096096.096096,-1.6275571262403998
2097497497.4974976,-1.6417414179376666
2098898898.898899,-1.6559257096349325
2100300300.3003004,-1.6699192647448695
2101701701.7017016,-1.682890219372621
2103103103.1031032,-1.6958611740003755
2104504504.5045047,-1.7088321286281312
2105905905.905906,-1.7218030832558835
2107307307.3073072,-1.7355164155775964
2108708708.7087088,-1.7530642980349405
2110110110.1101103,-1.7706121804922865
2111511511.5115116,-1.7881600629496281
2112912912.9129128,-1.805707945406971
2114314314.3143144,-1.8230444656177287
2115715715.715716,-1.839328219806003
2117117117.1171172,-1.855611973994275
2118518518.5185184,-1.871895728182548
2119919919.91992,-1.8881794823708222
2121321321.3213215,-1.9045891198452205
2122722722.7227228,-1.9216039035696344
2124124124.124124,-1.9386186872940483
2125525525.5255256,-1.9556334710184644
2126926926.926927,-1.9726482547428814
2128328328.3283284,-1.9898986252549926
2129729729.7297297,-2.008242905523974
2131131131.1311312,-2.026587185792958
2132532532.5325327,-2.0449314660619438
2133933933.933934,-2.063275746330927
2135335335.3353353,-2.0816101817150554
2136736736.7367368,-2.0999004285874774
2138138138.1381383,-2.1181906754599007
2139539539.5395396,-2.1364809223323196
2140940940.9409409,-2.154771169204741
2142342342.3423424,-2.173820272493083
2143743743.743744,-2.196164239536007
2145145145.1451452,-2.2185082065789294
2146546546.5465465,-2.240852173621851
2147947947.947948,-2.2631961406647774
2149349349.3493495,-2.2858055919963487
2150750750.7507505,-2.309530850863651
2152152152.152152,-2.3332561097309625
2153553553.5535536,-2.356981368598273
2154954954.954955,-2.380706627465585
2156356356.3563566,-2.403970223254893
2157757757.7577577,-2.425354391462955
2159159159.159159,-2.446738559671024
2160560560.5605607,-2.468122727879093
2161961961.9619617,-2.4895068960871543
2163363363.3633633,-2.5113561023766025
2164764764.764765,-2.5350401621839733
2166166166.1661663,-2.558724221991343
2167567567.567568,-2.582408281798713
2168968968.968969,-2.606092341606076
2170370370.3703704,-2.62996764126475
2171771771.771772,-2.654574673327441
2173173173.173173,-2.6791817053901252
2174574574.5745745,-2.7037887374528173
2175975975.975976,-2.728395769515509
2177377377.3773775,-2.754129243902057
2178778778.778779,-2.7840446752289125
2180180180.18018,-2.813960106555758
2181581581.5815816,-2.843875537882613
2182982982.982983,-2.873790969209468
2184384384.384384,-2.9031263618033267
2185785785.7857857,-2.9303712648935876
2187187187.187187,-2.957616167983851
2188588588.5885887,-2.984861071074116
2189989989.98999,-3.012105974164377
2191391391.3913913,-3.039684315554032
2192792792.792793,-3.06842984105384
2194194194.1941943,-3.0971753665536466
2195595595.5955954,-3.1259208920534434
2196996996.996997,-3.154666417553252
2198398398.3983984,-3.1833299712765597
2199799799.7998,-3.2117147055065662
2201201201.2012014,-3.2400994397365714
2202602602.6026025,-3.268484173966566
2204004004.004004,-3.2968689081965716
2205405405.4054055,-3.32612323401983
2206806806.8068066,-3.358252979418001
2208208208.208208,-3.3903827248161877
2209609609.6096096,-3.422512470214373
2211011011.011011,-3.454642215612557
2212412412.4124126,-3.4870812394281048
2213813813.8138137,-3.520514856737587
2215215215.215215,-3.5539484740470813
2216616616.6166167,-3.5873820913565764
2218018018.018018,-3.6208157086660577
2219419419.4194193,-3.6543451303578287
2220820820.820821,-3.6881743066362516
2222222222.2222223,-3.722003482914674
2223623623.623624,-3.7558326591930977
2225025025.025025,-3.7896618354715117
2226426426.4264264,-3.8229141152580026
2227827827.827828,-3.8544095678635557
2229229229.2292295,-3.8859050204691106
2230630630.6306305,-3.9174004730746557
2232032032.032032,-3.948895925680211
2233433433.4334335,-3.9808397121421204
2234834834.834835,-4.014112856485801
2236236236.2362366,-4.0473860008294835
2237637637.6376376,-4.080659145173155
2239039039.039039,-4.113932289516836
2240440440.4404407,-4.147908877683743
2241841841.8418417,-4.1839170291161505
2243243243.243243,-4.219925180548569
2244644644.6446447,-4.255933331980992
2246046046.0460463,-4.291941483413412
2247447447.447448,-4.327868888353797
2248848848.848849,-4.363569082150691
2250250250.2502503,-4.3992692759475975
2251651651.651652,-4.434969469744498
2253053053.053053,-4.470669663541391
2254454454.4544544,-4.505155966643889
2255855855.855856,-4.536313156344952
2257257257.2572575,-4.567470346046019
2258658658.658659,-4.598627535747087
2260060060.06006,-4.6297847254481415
2261461461.4614615,-4.662737908148738
2262862862.862863,-4.700493161771665
2264264264.264264,-4.73824841539458
2265665665.6656656,-4.776003669017508
2267067067.067067,-4.813758922640433
2268468468.4684687,-4.850147331118228
2269869869.86987,-4.882971685949196
2271271271.271271,-4.91579604078015
2272672672.6726727,-4.948620395611115
2274074074.0740743,-4.981444750442083
2275475475.4754753,-5.013748182946444
2276876876.876877,-5.04472660465695
2278278278.2782784,-5.075705026367454
2279679679.67968,-5.106683448077958
2281081081.0810814,-5.137661869788467
2282482482.4824824,-5.169304611778037
2283883883.883884,-5.20259612638228
2285285285.2852855,-5.235887640986518
2286686686.6866865,-5.2691791555907495
2288088088.088088,-5.302470670194985
2289489489.4894896,-5.333873268675961
2290890890.890891,-5.360700320161561
2292292292.2922926,-5.387527371647159
2293693693.6936936,-5.41435442313275
2295095095.095095,-5.4411814746183484
2296496496.4964967,-5.468666155034757
2297897897.8978977,-5.497705955278108
2299299299.2992992,-5.5267457555214685
2300700700.7007008,-5.555785555764828
2302102102.1021023,-5.584825356008188
2303503503.503504,-5.614641292617353
2304904904.904905,-5.646249379974558
2306306306.3063064,-5.677857467331765
2307707707.707708,-5.709465554688976
2309109109.109109,-5.741073642046175
2310510510.5105104,-5.768836667868147
2311911911.911912,-5.787928278873667
2313313313.3133135,-5.807019889879184
2314714714.714715,-5.826111500884707
2316116116.116116,-5.845203111890218
2317517517.5175176,-5.866622739369095
2318918918.918919,-5.893171161628166
2320320320.32032,-5.919719583887226
2321721721.7217216,-5.946268006146297
