Freq (Hz),s21avg
2000000000.0,-0.03148966164218567
2000900900.9009008,-0.029972874995326602
2001801801.801802,-0.02845608834846714
2002702702.7027028,-0.02694547659254985
2003603603.6036036,-0.027486986926237366
2004504504.5045044,-0.02802849725992489
2005405405.4054055,-0.028570007593612546
2006306306.3063064,-0.029111517927300063
2007207207.2072072,-0.029673925224782183
2008108108.108108,-0.03282755603279688
2009009009.0090091,-0.03598118684081241
2009909909.90991,-0.039134817648827105
2010810810.8108108,-0.04228844845684181
2011711711.7117116,-0.045391396459444816
2012612612.6126127,-0.044646349928077214
2013513513.5135136,-0.0439013033967098
2014414414.4144144,-0.0431562568653424
2015315315.3153152,-0.04241121033397498
2016216216.2162163,-0.041758435738228676
2017117117.1171172,-0.04613960785245445
2018018018.018018,-0.05052077996668022
2018918918.9189188,-0.054901952080906
2019819819.81982,-0.059283124195132944
2020720720.7207208,-0.06353108188196162
2021621621.6216216,-0.0621203223702407
2022522522.5225224,-0.06070956285851977
2023423423.4234235,-0.059298803346798476
2024324324.3243244,-0.05788804383507756
2025225225.2252252,-0.05651079148906309
2026126126.126126,-0.0562967164668588
2027027027.0270271,-0.056082641444654455
2027927927.927928,-0.05586856642245016
2028828828.8288288,-0.055654491400245865
2029729729.7297297,-0.055518550296162095
2030630630.6306307,-0.0576721697624647
2031531531.5315316,-0.059825789228766746
2032432432.4324324,-0.06197940869506878
2033333333.3333333,-0.06413302816137081
2034234234.2342343,-0.06625072168765872
2035135135.1351352,-0.06745892167989273
2036036036.036036,-0.06866712167212673
2036936936.9369369,-0.06987532166436072
2037837837.837838,-0.07108352165659505
2038738738.7387388,-0.07209476265569012
2039639639.6396396,-0.06872252094702377
2040540540.5405405,-0.06535027923835744
2041441441.4414415,-0.06197803752969019
2042342342.3423424,-0.05860579582102386
2043243243.2432432,-0.055397628352414977
2044144144.144144,-0.055443599978280834
2045045045.0450451,-0.05548957160414673
2045945945.945946,-0.0555355432300126
2046846846.8468468,-0.055581514855878464
2047747747.7477477,-0.0553683719624453
2048648648.6486487,-0.05052539039397965
2049549549.5495496,-0.0456824088255153
2050450450.4504504,-0.04083942725705095
2051351351.3513513,-0.03599644568858659
2052252252.2522523,-0.031681259497539034
2053153153.1531532,-0.0359381982293704
2054054054.054054,-0.04019513696120178
2054954954.9549549,-0.04445207569303315
2055855855.855856,-0.048709014424865645
2056756756.7567568,-0.052763540640387865
2057657657.6576576,-0.05380758228794874
2058558558.5585585,-0.05485162393550963
2059459459.4594595,-0.055895665583070776
2060360360.3603604,-0.05693970723063165
2061261261.2612612,-0.05763353727122289
2062162162.162162,-0.05352740822805112
2063063063.0630631,-0.04942127918487827
2063963963.963964,-0.04531515014170649
2064864864.8648648,-0.04120902109853471
2065765765.7657657,-0.03731684462336498
2066666666.6666667,-0.03614157267611544
2067567567.5675676,-0.0349663007288662
2068468468.4684684,-0.033791028781616966
2069369369.3693693,-0.03261575683436772
2070270270.2702703,-0.031569683231876144
2071171171.1711712,-0.032050800319983336
2072072072.072072,-0.03253191740809053
2072972972.9729729,-0.033013034496197725
2073873873.873874,-0.033494151584305056
2074774774.7747748,-0.034248452974349024
2075675675.6756756,-0.03802094719422372
2076576576.5765765,-0.04179344141409842
2077477477.4774776,-0.04556593563397411
2078378378.3783784,-0.04933842985384881
2079279279.2792792,-0.053153874611198006
2080180180.18018,-0.05741444312055599
2081081081.0810812,-0.0616750116299151
2081981981.981982,-0.06593558013927307
2082882882.8828828,-0.07019614864863107
2083783783.783784,-0.07368594202345251
2084684684.6846848,-0.06965860586037581
2085585585.5855856,-0.06563126969729911
2086486486.4864864,-0.06160393353422241
2087387387.3873873,-0.05757659737114569
2088288288.2882884,-0.05394045272091532
2089189189.1891892,-0.05390486668893123
2090090090.09009,-0.05386928065694713
2090990990.990991,-0.053833694624963
2091891891.891892,-0.0537981085929789
2092792792.7927928,-0.05405272856486666
2093693693.6936936,-0.05683467655105556
2094594594.5945945,-0.0596166245372445
2095495495.4954956,-0.062398572523434136
2096396396.3963964,-0.06518052050962306
2097297297.2972972,-0.06804986533997079
2098198198.1981983,-0.07164104336466864
2099099099.0990992,-0.07523222138936553
2100000000.0,-0.07882339941406243
2100900900.9009008,-0.08241457743875931
2101801801.8018017,-0.08524173206520189
2102702702.7027028,-0.08207164107879016
2103603603.6036036,-0.07890155009237929
2104504504.5045044,-0.07573145910596843
2105405405.4054055,-0.0725613681195567
2106306306.3063064,-0.06984082978058744
2107207207.2072072,-0.07048050699283191
2108108108.108108,-0.07112018420507639
2109009009.0090091,-0.07175986141732103
2109909909.90991,-0.07239953862956552
2110810810.8108108,-0.07272204093707868
2111711711.7117116,-0.07078306038728
2112612612.6126127,-0.06884407983748078
2113513513.5135136,-0.06690509928768208
2114414414.4144144,-0.06496611873788338
2115315315.3153152,-0.06348288482127933
2116216216.2162163,-0.065104424843316
2117117117.1171172,-0.06672596486535225
2118018018.018018,-0.06834750488738853
2118918918.9189188,-0.06996904490942477
2119819819.81982,-0.07208516087517361
2120720720.7207208,-0.07742531701534285
2121621621.6216216,-0.08276547315551211
2122522522.5225224,-0.08810562929568133
2123423423.4234235,-0.09344578543585198
2124324324.3243244,-0.09690627382026615
2125225225.2252252,-0.08862564912163624
2126126126.126126,-0.08034502442300637
2127027027.0270271,-0.07206439972437427
2127927927.927928,-0.06378377502574437
2128828828.8288288,-0.05618492627340486
2129729729.7297297,-0.05267196553484792
2130630630.6306307,-0.049159004796290054
2131531531.5315316,-0.04564604405773309
2132432432.4324324,-0.042133083319176146
2133333333.3333333,-0.038878520355478605
2134234234.2342343,-0.0371114905281343
2135135135.1351352,-0.03534446070079046
2136036036.036036,-0.03357743087344664
2136936936.9369369,-0.031810401046102804
2137837837.837838,-0.030465487482385162
2138738738.7387388,-0.0314573874826644
2139639639.6396396,-0.03244928748294364
2140540540.5405405,-0.03344118748322287
2141441441.4414415,-0.034433087483502364
2142342342.3423424,-0.03594340586822155
2143243243.2432432,-0.040216434883942484
2144144144.144144,-0.04448946389966344
2145045045.0450451,-0.048762492915385515
2145945945.945946,-0.053035521931106444
2146846846.8468468,-0.057227280113905335
2147747747.747748,-0.06100171506262071
2148648648.6486487,-0.06477615001133509
2149549549.5495496,-0.06855058496004947
2150450450.4504504,-0.07232501990876386
2151351351.3513513,-0.07557265338558404
2152252252.252252,-0.07621136528730756
2153153153.153153,-0.07685007718903106
2154054054.0540543,-0.07748878909075489
2154954954.954955,-0.0781275009924784
2155855855.855856,-0.07853922042447892
2156756756.756757,-0.07786583712549236
2157657657.6576576,-0.07719245382650579
2158558558.5585585,-0.07651907052751923
2159459459.4594593,-0.07584568722853267
2160360360.36036,-0.07545382022758527
2161261261.2612615,-0.07636198916477625
2162162162.1621623,-0.07727015810196676
2163063063.063063,-0.07817832703915727
2163963963.963964,-0.07908649597634777
2164864864.864865,-0.08025973480545498
2165765765.7657657,-0.08261637309738178
2166666666.6666665,-0.08497301138930854
2167567567.567568,-0.0873296496812366
2168468468.4684687,-0.08968628797316339
2169369369.3693695,-0.09205738160111118
2170270270.2702703,-0.09449090997825593
2171171171.171171,-0.0969244383554007
2172072072.072072,-0.09935796673254545
2172972972.972973,-0.10179149510969021
2173873873.8738737,-0.10420573896844869
2174774774.7747746,-0.1065393475612085
2175675675.675676,-0.10887295615396957
2176576576.5765767,-0.11120656474672938
2177477477.4774776,-0.11354017333948921
2178378378.3783784,-0.11525456049811252
2179279279.279279,-0.11446078811038533
2180180180.18018,-0.11366701572265814
2181081081.081081,-0.11287324333493096
2181981981.981982,-0.11207947094720336
2182882882.882883,-0.11118512143291129
2183783783.783784,-0.10989589521974183
2184684684.6846848,-0.10860666900657237
2185585585.5855856,-0.1073174427934029
2186486486.4864864,-0.10602821658023345
2187387387.3873873,-0.1043753525855509
2188288288.288288,-0.10133786780741372
2189189189.189189,-0.09830038302927653
2190090090.0900903,-0.09526289825113775
2190990990.990991,-0.09222541347300056
2191891891.891892,-0.08974790957497539
2192792792.792793,-0.0893394430133255
2193693693.6936936,-0.08893097645167558
2194594594.5945945,-0.08852250989002568
2195495495.4954953,-0.08811404332837577
2196396396.3963966,-0.08881701910912747
2197297297.2972975,-0.09350691191628667
2198198198.1981983,-0.09819680472344589
2199099099.099099,-0.10288669753060509
2200000000.0,-0.1075765903377643
2200900900.900901,-0.11231244233282656
2201801801.8018017,-0.11720843015300393
2202702702.7027025,-0.1221044179731813
2203603603.6036034,-0.1270004057933587
2204504504.5045047,-0.1318963936135386
2205405405.4054055,-0.13746404540388057
2206306306.3063064,-0.1453059278300409
2207207207.207207,-0.1531478102562013
2208108108.108108,-0.16098969268236168
2209009009.009009,-0.16883157510852204
2209909909.9099097,-0.17425303541803405
2210810810.810811,-0.17170684009032908
2211711711.711712,-0.16916064476262543
2212612612.6126127,-0.16661444943492182
2213513513.5135136,-0.16406825410721818
2214414414.4144144,-0.16310321371587738
2215315315.3153152,-0.167200526524152
2216216216.216216,-0.17129783933242654
2217117117.117117,-0.17539515214070114
2218018018.0180182,-0.1794924649489779
2218918918.918919,-0.18175607135379152
2219819819.81982,-0.1783072672754017
2220720720.720721,-0.17485846319701187
2221621621.6216216,-0.17140965911862208
2222522522.5225224,-0.16796085504023228
2223423423.4234233,-0.16799142466087785
2224324324.324324,-0.17857235323989631
2225225225.2252254,-0.18915328181892038
2226126126.1261263,-0.19973421039793882
2227027027.027027,-0.21031513897695725
2227927927.927928,-0.21721182144121642
2228828828.828829,-0.2132305124124943
2229729729.7297297,-0.2092492033837722
2230630630.6306305,-0.20526789435505005
2231531531.5315313,-0.20128658532632798
2232432432.4324327,-0.200148740981659
2233333333.3333335,-0.20718861289887638
2234234234.2342343,-0.21422848481609372
2235135135.135135,-0.22126835673331113
2236036036.036036,-0.22830822865052852
2236936936.936937,-0.231893776981636
2237837837.8378377,-0.2257993386855041
2238738738.7387385,-0.2197049003893722
2239639639.63964,-0.21361046209323703
2240540540.5405407,-0.20751602379710513
2241441441.4414415,-0.20359872223752803
2242342342.3423424,-0.20562792848077632
2243243243.243243,-0.20765713472402458
2244144144.144144,-0.20968634096727282
2245045045.045045,-0.21171554721052105
2245945945.9459457,-0.212665042681353
2246846846.846847,-0.21073926441025176
2247747747.747748,-0.20881348613915157
2248648648.6486487,-0.20688770786805133
2249549549.5495496,-0.2049619295969511
2250450450.4504504,-0.2054598902787958
2251351351.3513513,-0.21225259744994399
2252252252.252252,-0.21904530462109215
2253153153.153153,-0.22583801179224022
2254054054.0540543,-0.23263071896339205
2254954954.954955,-0.2388815639494441
2255855855.855856,-0.2437595637527629
2256756756.756757,-0.24863756355608166
2257657657.6576576,-0.25351556335940045
2258558558.5585585,-0.25839356316271916
2259459459.4594593,-0.2603673353137293
2260360360.36036,-0.25516121132430436
2261261261.2612615,-0.2499550873348766
2262162162.1621623,-0.24474896334545154
2263063063.063063,-0.2395428393560266
2263963963.963964,-0.2356773881822539
2264864864.864865,-0.2350469393315731
2265765765.7657657,-0.2344164904808924
2266666666.6666665,-0.2337860416302117
2267567567.567568,-0.23315559277953063
2268468468.4684687,-0.232592629994293
2269369369.3693695,-0.232188644450468
2270270270.2702703,-0.23178465890664302
2271171171.171171,-0.23138067336281803
2272072072.072072,-0.23097668781899303
2272972972.972973,-0.23271393265124943
2273873873.8738737,-0.23937671402518693
2274774774.7747746,-0.24603949539912434
2275675675.675676,-0.25270227677306534
2276576576.5765767,-0.25936505814700267
2277477477.4774776,-0.2643814204172326
2278378378.3783784,-0.2656986852206926
2279279279.279279,-0.2670159500241528
2280180180.18018,-0.26833321482761285
2281081081.081081,-0.2696504796310729
2281981981.981982,-0.27138539876694096
2282882882.882883,-0.27403702245987976
2283783783.783784,-0.27668864615281874
2284684684.6846848,-0.2793402698457576
2285585585.5855856,-0.28199189353869647
2286486486.4864864,-0.2826609184176383
2287387387.3873873,-0.2790779546451768
2288288288.288288,-0.27549499087271534
2289189189.189189,-0.27191202710025386
2290090090.0900903,-0.2683290633277905
2290990990.990991,-0.26579806208640283
2291891891.891892,-0.2654719482553446
2292792792.792793,-0.2651458344242864
2293693693.6936936,-0.2648197205932282
2294594594.5945945,-0.26449360676217004
2295495495.4954953,-0.2638534788213945
2296396396.3963966,-0.2625700048997333
2297297297.2972975,-0.2612865309780728
2298198198.1981983,-0.2600030570564123
2299099099.099099,-0.25871958313475174
2300000000.0,-0.2580278662440143
2300900900.900901,-0.25852144046326386
2301801801.8018017,-0.2590150146825134
2302702702.7027025,-0.2595085889017629
2303603603.6036034,-0.26000216312101243
2304504504.5045047,-0.2613701602235795
2305405405.4054055,-0.2644507843934703
2306306306.3063064,-0.267531408563361
2307207207.207207,-0.27061203273325174
2308108108.108108,-0.27369265690314243
2309009009.009009,-0.2768269696041923
2309909909.9099097,-0.28006412010399334
2310810810.810811,-0.28330127060379606
2311711711.711712,-0.2865384211035971
2312612612.6126127,-0.28977557160339806
2313513513.5135136,-0.28976044628013486
2314414414.4144144,-0.283651976598719
2315315315.3153152,-0.2775435069173031
2316216216.216216,-0.2714350372358872
2317117117.117117,-0.26532656755447126
2318018018.018018,-0.2579773702852549
2318918918.918919,-0.24835409157323532
2319819819.81982,-0.23873081286122072
2320720720.720721,-0.22910753414920615
2321621621.6216216,-0.21948425543719163
2322522522.5225224,-0.2136423364679509
2323423423.4234233,-0.2145815151379878
2324324324.3243246,-0.21552069380802524
2325225225.2252254,-0.21645987247806212
2326126126.1261263,-0.21739905114809907
2327027027.027027,-0.2183033253999734
2327927927.927928,-0.2191463486480747
2328828828.828829,-0.21998937189617598
2329729729.7297297,-0.22083239514427727
2330630630.6306305,-0.2216754183923786
2331531531.5315313,-0.22211240006681393
2332432432.4324327,-0.22185204947343098
2333333333.3333335,-0.22159169888004815
2334234234.2342343,-0.22133134828666537
2335135135.135135,-0.2210709976932826
2336036036.036036,-0.22036710537775664
2336936936.936937,-0.21891763488586685
2337837837.8378377,-0.21746816439397704
2338738738.738739,-0.21601869390208656
2339639639.63964,-0.21456922341019674
2340540540.5405407,-0.21445198220246944
2341441441.4414415,-0.21652692780624555
2342342342.3423424,-0.21860187341002174
2343243243.243243,-0.22067681901379785
2344144144.144144,-0.222751764617574
2345045045.045045,-0.22599312849523345
2345945945.9459457,-0.23111355262089917
2346846846.846847,-0.23623397674656754
2347747747.747748,-0.2413544008722333
2348648648.6486487,-0.24647482499789897
2349549549.5495496,-0.2511219849184962
2350450450.4504504,-0.25502265593831563
2351351351.3513513,-0.2589233269581349
2352252252.252252,-0.26282399797795425
2353153153.1531534,-0.26672466899777564
2354054054.0540543,-0.26878378352928123
2354954954.954955,-0.2679985601768042
2355855855.855856,-0.26721333682432713
2356756756.756757,-0.26642811347184997
2357657657.6576576,-0.2656428901193729
2358558558.5585585,-0.26355069240869783
2359459459.4594593,-0.2594816138848681
2360360360.36036,-0.25541253536103853
2361261261.2612615,-0.25134345683720677
2362162162.1621623,-0.24727437831337715
2363063063.063063,-0.24728060442180308
2363963963.963964,-0.253323944340292
2364864864.864865,-0.25936728425878086
2365765765.7657657,-0.26541062417726974
2366666666.6666665,-0.27145396409575867
2367567567.567568,-0.27580766077311225
2368468468.4684687,-0.2777097182378335
2369369369.3693695,-0.27961177570255474
2370270270.2702703,-0.28151383316727596
2371171171.171171,-0.2834158906319972
2372072072.072072,-0.2843123429318294
2372972972.972973,-0.2837795210626787
2373873873.8738737,-0.283246699193528
2374774774.7747746,-0.28271387732437736
2375675675.675676,-0.2821810554552264
2376576576.5765767,-0.2809952665697038
2377477477.4774776,-0.27890032265181713
2378378378.3783784,-0.2768053787339304
2379279279.279279,-0.27471043481604374
2380180180.18018,-0.27261549089815706
2381081081.081081,-0.2730122820188853
2381981981.981982,-0.2768079646698321
2382882882.882883,-0.280603647320777
2383783783.783784,-0.2843993299717219
2384684684.6846848,-0.2881950126226668
2385585585.5855856,-0.2892952511779949
2386486486.4864864,-0.28679316725039644
2387387387.3873873,-0.28429108332279796
2388288288.288288,-0.2817889993951995
2389189189.189189,-0.2792869154676011
2390090090.0900903,-0.2788550256433817
2390990990.990991,-0.2811339904533797
2391891891.891892,-0.28341295526337784
2392792792.792793,-0.2856919200733759
2393693693.6936936,-0.287970884883374
2394594594.5945945,-0.28866154105097086
2395495495.4954953,-0.28731423042169585
2396396396.3963966,-0.2859669197924201
2397297297.2972975,-0.2846196091631452
2398198198.1981983,-0.28327229853387026
2399099099.099099,-0.2846416503642065
2400000000.0,-0.2894267606369873
2400900900.900901,-0.2942118709097681
2401801801.8018017,-0.2989969811825489
2402702702.7027025,-0.30378209145532964
2403603603.6036034,-0.30810290585040134
2404504504.5045047,-0.3118516413961544
2405405405.4054055,-0.31560037694190535
2406306306.3063064,-0.3193491124876564
2407207207.207207,-0.32309784803340735
2408108108.108108,-0.32477199590272854
2409009009.009009,-0.323941067703601
2409909909.9099097,-0.3231101395044733
2410810810.810811,-0.3222792113053452
2411711711.711712,-0.3214482831062176
2412612612.6126127,-0.31927171329796333
2413513513.5135136,-0.3155027029828398
2414414414.4144144,-0.3117336926677163
2415315315.3153152,-0.3079646823525927
2416216216.216216,-0.3041956720374692
2417117117.117117,-0.30325626106983805
2418018018.0180182,-0.3055986964296478
2418918918.918919,-0.30794113178945637
2419819819.81982,-0.31028356714926486
2420720720.720721,-0.31262600250907335
2421621621.6216216,-0.31491677552710395
2422522522.5225224,-0.3171488212677288
2423423423.4234233,-0.3193808670083536
2424324324.3243246,-0.3216129127489797
2425225225.2252254,-0.3238449584896045
2426126126.1261263,-0.3259793122823701
2427027027.027027,-0.3280048211353434
2427927927.927928,-0.3300303299883167
2428828828.828829,-0.33205583884129003
2429729729.7297297,-0.33408134769426334
2430630630.6306305,-0.33648102978007144
2431531531.5315313,-0.339289327823076
2432432432.4324327,-0.34209762586608206
2433333333.3333335,-0.34490592390908664
2434234234.2342343,-0.34771422195209123
2435135135.135135,-0.3533976960556591
2436036036.036036,-0.3621587395656676
2436936936.936937,-0.370919783075676
2437837837.8378377,-0.37968082658568447
2438738738.738739,-0.3884418700956974
2439639639.63964,-0.39399005917626895
2440540540.5405407,-0.39616738459317213
2441441441.4414415,-0.39834471001007543
2442342342.3423424,-0.40052203542697884
2443243243.243243,-0.40269936084388214
2444144144.144144,-0.40517363879151375
2445045045.045045,-0.407953301998941
2445945945.9459457,-0.4107329652063683
2446846846.846847,-0.41351262841379705
2447747747.747748,-0.4162922916212244
2448648648.6486487,-0.41843737814631005
2449549549.5495496,-0.4199427909875899
2450450450.4504504,-0.4214482038288697
2451351351.3513513,-0.42295361667014947
2452252252.252252,-0.42445902951142933
2453153153.1531534,-0.428980046440934
2454054054.0540543,-0.4364806960381227
2454954954.954955,-0.4439813456353113
2455855855.855856,-0.45148199523250004
2456756756.756757,-0.4589826448296887
