Freq (Hz),s21avg
2000000000.0,-0.06873614047458597
2000900900.9009008,-0.06989111463545718
2001801801.801802,-0.07104608879632864
2002702702.7027028,-0.06951101478130661
2003603603.6036036,-0.06708998604966496
2004504504.5045044,-0.06466895731802327
2005405405.4054055,-0.062247928586380966
2006306306.3063064,-0.05982689985473929
2007207207.2072072,-0.060322246512396184
2008108108.108108,-0.061752489341399465
2009009009.0090091,-0.06318273217040313
2009909909.90991,-0.06461297499940642
2010810810.8108108,-0.06604321782840969
2011711711.7117116,-0.06645857469915156
2012612612.6126127,-0.06655738301420087
2013513513.5135136,-0.06665619132925014
2014414414.4144144,-0.06675499964429941
2015315315.3153152,-0.0668538079593487
2016216216.2162163,-0.06581151250595833
2017117117.1171172,-0.06442305621567765
2018018018.018018,-0.06303459992539695
2018918918.9189188,-0.06164614363511626
2019819819.81982,-0.060257687344835185
2020720720.7207208,-0.06260300895445377
2021621621.6216216,-0.06604948681748973
2022522522.5225224,-0.06949596468052568
2023423423.4234235,-0.07294244254356255
2024324324.3243244,-0.07638892040659852
2025225225.2252252,-0.07510168616857198
2026126126.126126,-0.07245783003217113
2027027027.0270271,-0.06981397389576954
2027927927.927928,-0.0671701177593687
2028828828.8288288,-0.06452626162296785
2029729729.7297297,-0.06329793396606276
2030630630.6306307,-0.06246363804633901
2031531531.5315316,-0.06162934212661547
2032432432.4324324,-0.06079504620689193
2033333333.3333333,-0.059960750287168386
2034234234.2342343,-0.05934199045392306
2035135135.1351352,-0.05878147806735719
2036036036.036036,-0.05822096568079131
2036936936.9369369,-0.057660453294225436
2037837837.837838,-0.05709994090765941
2038738738.7387388,-0.05665619666844225
2039639639.6396396,-0.0562430722873654
2040540540.5405405,-0.05582994790628859
2041441441.4414415,-0.05541682352521164
2042342342.3423424,-0.05500369914413482
2043243243.2432432,-0.05420001109827175
2044144144.144144,-0.05329699814424262
2045045045.0450451,-0.052393985190213245
2045945945.945946,-0.05149097223618412
2046846846.8468468,-0.05058795928215498
2047747747.7477477,-0.0515401588327386
2048648648.6486487,-0.0529496575703432
2049549549.5495496,-0.054359156307947396
2050450450.4504504,-0.055768655045551604
2051351351.3513513,-0.05717815378315583
2052252252.2522523,-0.054777307694445054
2053153153.1531532,-0.05146665180050434
2054054054.054054,-0.0481559959065636
2054954954.9549549,-0.0448453400126229
2055855855.855856,-0.04153468411868131
2056756756.7567568,-0.040850546880956046
2057657657.6576576,-0.040773524297221794
2058558558.5585585,-0.04069650171348752
2059459459.4594595,-0.040619479129753236
2060360360.3603604,-0.04054245654601897
2061261261.2612612,-0.0409201154713003
2062162162.162162,-0.04139944835898307
2063063063.0630631,-0.041878781246665976
2063963963.963964,-0.04235811413434876
2064864864.8648648,-0.04283744702203154
2065765765.7657657,-0.04325369224424833
2066666666.6666667,-0.04365629948223102
2067567567.5675676,-0.0440589067202136
2068468468.4684684,-0.044461513958196176
2069369369.3693693,-0.044864121196178754
2070270270.2702703,-0.04736199251402199
2071171171.1711712,-0.05029740613442849
2072072072.072072,-0.053232819754835
2072972972.9729729,-0.05616823337524153
2073873873.873874,-0.059103646995648816
2074774774.7747748,-0.05768477964869813
2075675675.6756756,-0.055388254587991
2076576576.5765765,-0.053091729527283894
2077477477.4774776,-0.05079520446657617
2078378378.3783784,-0.04849867940586906
2079279279.2792792,-0.04619266914322849
2080180180.18018,-0.043884815086482586
2081081081.0810812,-0.0415769610297361
2081981981.981982,-0.03926910697299023
2082882882.8828828,-0.03696125291624434
2083783783.783784,-0.03550381597360875
2084684684.6846848,-0.03420565869823504
2085585585.5855856,-0.032907501422861335
2086486486.4864864,-0.03160934414748763
2087387387.3873873,-0.0303111868721139
2088288288.2882884,-0.030847015674964073
2089189189.1891892,-0.031713492307201975
2090090090.09009,-0.03257996893943986
2090990990.990991,-0.03344644557167801
2091891891.891892,-0.0343129222039159
2092792792.7927928,-0.03273058061603831
2093693693.6936936,-0.030723700580496466
2094594594.5945945,-0.028716820544954603
2095495495.4954956,-0.026709940509412212
2096396396.3963964,-0.024703060473870348
2097297297.2972972,-0.02895102473384471
2098198198.1981983,-0.0342405509922865
2099099099.0990992,-0.03953007725072689
2100000000.0,-0.04481960350916726
2100900900.9009008,-0.05010912976760766
2101801801.8018017,-0.049803424341281995
2102702702.7027028,-0.048603844557661716
2103603603.6036036,-0.04740426477404177
2104504504.5045044,-0.0462046849904218
2105405405.4054055,-0.045005105206801524
2106306306.3063064,-0.043776753726443185
2107207207.2072072,-0.042543998161055134
2108108108.108108,-0.041311242595667076
2109009009.0090091,-0.0400784870302787
2109909909.90991,-0.03884573146489064
2110810810.8108108,-0.03980518837672334
2111711711.7117116,-0.041085717393990036
2112612612.6126127,-0.04236624641125709
2113513513.5135136,-0.043646775428523785
2114414414.4144144,-0.0449273044457905
2115315315.3153152,-0.04402228008532665
2116216216.2162163,-0.04281144019095943
2117117117.1171172,-0.041600600296592516
2118018018.018018,-0.0403897604022256
2118918918.9189188,-0.03917892050785869
2119819819.81982,-0.0393590253336898
2120720720.7207208,-0.03972477339080836
2121621621.6216216,-0.04009052144792692
2122522522.5225224,-0.04045626950504549
2123423423.4234235,-0.04082201756216414
2124324324.3243244,-0.04262860397890149
2125225225.2252252,-0.04461828932496748
2126126126.126126,-0.04660797467103346
2127027027.0270271,-0.048597660017099975
2127927927.927928,-0.05058734536316596
2128828828.8288288,-0.04847299452329917
2129729729.7297297,-0.0458630315802841
2130630630.6306307,-0.043253068637268334
2131531531.5315316,-0.040643105694253265
2132432432.4324324,-0.038033142751238175
2133333333.3333333,-0.03908774805807181
2134234234.2342343,-0.040562007182316895
2135135135.1351352,-0.04203626630656159
2136036036.036036,-0.04351052543080629
2136936936.9369369,-0.044984784555050984
2137837837.837838,-0.04828569312622933
2138738738.7387388,-0.051784501374256685
2139639639.6396396,-0.055283309622284046
2140540540.5405405,-0.05878211787031142
2141441441.4414415,-0.062280926118339706
2142342342.3423424,-0.06386224300412632
2143243243.2432432,-0.06524753087492519
2144144144.144144,-0.06663281874572405
2145045045.0450451,-0.06801810661652327
2145945945.945946,-0.06940339448732216
2146846846.8468468,-0.07044514700747817
2147747747.747748,-0.07145385460900591
2148648648.6486487,-0.0724625622105334
2149549549.5495496,-0.07347126981206091
2150450450.4504504,-0.07447997741358839
2151351351.3513513,-0.07534047297307005
2152252252.252252,-0.07618759753611751
2153153153.153153,-0.07703472209916493
2154054054.0540543,-0.07788184666221283
2154954954.954955,-0.07872897122526028
2155855855.855856,-0.07909600643006921
2156756756.756757,-0.07942256785054316
2157657657.6576576,-0.07974912927101709
2158558558.5585585,-0.08007569069149104
2159459459.4594593,-0.08040225211196497
2160360360.36036,-0.08309370386693986
2161261261.2612615,-0.0859706997274276
2162162162.1621623,-0.08884769558791385
2163063063.063063,-0.09172469144840009
2163963963.963964,-0.09460168730888632
2164864864.864865,-0.09518703722759399
2165765765.7657657,-0.09560584489630916
2166666666.6666665,-0.09602465256502438
2167567567.567568,-0.0964434602337398
2168468468.4684687,-0.09686226790245502
2169369369.3693695,-0.09759565033333473
2170270270.2702703,-0.09835009391793627
2171171171.171171,-0.09910453750253777
2172072072.072072,-0.09985898108713928
2172972972.972973,-0.1006134246717408
2173873873.8738737,-0.10235997756740725
2174774774.7747746,-0.10416733631365911
2175675675.675676,-0.10597469505991194
2176576576.5765767,-0.10778205380616382
2177477477.4774776,-0.10958941255241572
2178378378.3783784,-0.10863845262952905
2179279279.279279,-0.1075338887902562
2180180180.18018,-0.10642932495098334
2181081081.081081,-0.10532476111171049
2181981981.981982,-0.10422019727243703
2182882882.882883,-0.10552370545744719
2183783783.783784,-0.10694796495687983
2184684684.6846848,-0.10837222445631249
2185585585.5855856,-0.10979648395574512
2186486486.4864864,-0.11122074345517777
2187387387.3873873,-0.11471337961993475
2188288288.288288,-0.11829838779037752
2189189189.189189,-0.12188339596082029
2190090090.0900903,-0.12546840413126498
2190990990.990991,-0.1290534123017077
2191891891.891892,-0.12930068751409193
2192792792.792793,-0.12941702022799217
2193693693.6936936,-0.12953335294189236
2194594594.5945945,-0.12964968565579263
2195495495.4954953,-0.12976601836969284
2196396396.3963966,-0.13495913452004296
2197297297.2972975,-0.1403241448627342
2198198198.1981983,-0.14568915520542539
2199099099.099099,-0.15105416554811663
2200000000.0,-0.15641917589080784
2200900900.900901,-0.16101885668830682
2201801801.8018017,-0.16559669341804642
2202702702.7027025,-0.170174530147786
2203603603.6036034,-0.17475236687752563
2204504504.5045047,-0.17933020360726762
2205405405.4054055,-0.17845925490150666
2206306306.3063064,-0.1774614605895482
2207207207.207207,-0.17646366627758975
2208108108.108108,-0.1754658719656313
2209009009.009009,-0.17446807765367284
2209909909.9099097,-0.1793260378828022
2210810810.810811,-0.18428981602296007
2211711711.711712,-0.18925359416311532
2212612612.6126127,-0.1942173723032706
2213513513.5135136,-0.19918115044342588
2214414414.4144144,-0.19341982485198464
2215315315.3153152,-0.18751998817158194
2216216216.216216,-0.18162015149117927
2217117117.117117,-0.17572031481077655
2218018018.0180182,-0.16982047813037077
2218918918.918919,-0.1707606311318875
2219819819.81982,-0.17175420808909395
2220720720.720721,-0.17274778504630045
2221621621.6216216,-0.17374136200350684
2222522522.5225224,-0.1747349389607133
2223423423.4234233,-0.1776742575150803
2224324324.324324,-0.18061894161408745
2225225225.2252254,-0.1835636257130961
2226126126.1261263,-0.1865083098121032
2227027027.027027,-0.18946293118494864
2227927927.927928,-0.1968241814340966
2228828828.828829,-0.20418543168324463
2229729729.7297297,-0.21154668193239257
2230630630.6306305,-0.21890793218154053
2231531531.5315313,-0.22622489385694777
2232432432.4324327,-0.22747737531408685
2233333333.3333335,-0.22872985677122526
2234234234.2342343,-0.22998233822836373
2235135135.135135,-0.231234819685502
2236036036.036036,-0.23246686457553797
2236936936.936937,-0.23205105484063981
2237837837.8378377,-0.23163524510574168
2238738738.7387385,-0.2312194353708435
2239639639.63964,-0.23080362563594514
2240540540.5405407,-0.2303997456135572
2241441441.4414415,-0.23067551341547662
2242342342.3423424,-0.23095128121739603
2243243243.243243,-0.23122704901931548
2244144144.144144,-0.2315028168212349
2245045045.045045,-0.23175311152050598
2245945945.9459457,-0.2308840207764271
2246846846.846847,-0.23001493003234774
2247747747.747748,-0.2291458392882689
2248648648.6486487,-0.22827674854418994
2249549549.5495496,-0.22733652384600625
2250450450.4504504,-0.22385701276781136
2251351351.3513513,-0.2203775016896165
2252252252.252252,-0.21689799061142168
2253153153.153153,-0.21341847953322685
2254054054.0540543,-0.21006472195752512
2254954954.954955,-0.21048454429000216
2255855855.855856,-0.21090436662247916
2256756756.756757,-0.2113241889549562
2257657657.6576576,-0.2117440112874332
2258558558.5585585,-0.21243752242194378
2259459459.4594593,-0.22020469514460483
2260360360.36036,-0.2279718678672659
2261261261.2612615,-0.23573904058993106
2262162162.1621623,-0.24350621331259217
2263063063.063063,-0.2509431637090065
2263963963.963964,-0.2508944233844238
2264864864.864865,-0.25084568305984123
2265765765.7657657,-0.2507969427352586
2266666666.6666665,-0.25074820241067597
2267567567.567568,-0.2508850755614413
2268468468.4684687,-0.2547646627574265
2269369369.3693695,-0.2586442499534117
2270270270.2702703,-0.26252383714939687
2271171171.171171,-0.2664034243453821
2272072072.072072,-0.2703285536626722
2272972972.972973,-0.2750797604051644
2273873873.8738737,-0.27983096714765654
2274774774.7747746,-0.2845821738901486
2275675675.675676,-0.28933338063264336
2276576576.5765767,-0.29343019614482185
2277477477.4774776,-0.28675098838404856
2278378378.3783784,-0.2800717806232754
2279279279.279279,-0.2733925728625023
2280180180.18018,-0.26671336510172905
2281081081.081081,-0.26062802442004757
2281981981.981982,-0.2634888500583667
2282882882.882883,-0.26634967569668444
2283783783.783784,-0.26921050133500196
2284684684.6846848,-0.2720713269733196
2285585585.5855856,-0.27448185878179643
2286486486.4864864,-0.27064686538902694
2287387387.3873873,-0.2668118719962572
2288288288.288288,-0.2629768786034875
2289189189.189189,-0.25914188521071796
2290090090.0900903,-0.2550904342557865
2290990990.990991,-0.24825948844559007
2291891891.891892,-0.24142854263539362
2292792792.792793,-0.23459759682519726
2293693693.6936936,-0.2277666510150007
2294594594.5945945,-0.2215435869147091
2295495495.4954953,-0.22258166000296936
2296396396.3963966,-0.22361973309123023
2297297297.2972975,-0.22465780617949052
2298198198.1981983,-0.22569587926775073
2299099099.099099,-0.22620202923013183
2300000000.0,-0.2207729518517818
2300900900.900901,-0.2153438744734318
2301801801.8018017,-0.2099147970950818
2302702702.7027025,-0.2044857197167317
2303603603.6036034,-0.20011237118636438
2304504504.5045047,-0.20678333791100764
2305405405.4054055,-0.2134543046356474
2306306306.3063064,-0.22012527136028712
2307207207.207207,-0.22679623808492683
2308108108.108108,-0.23272056884450398
2309009009.009009,-0.23129792077171257
2309909909.9099097,-0.22987527269892105
2310810810.810811,-0.22845262462612878
2311711711.711712,-0.22702997655333731
2312612612.6126127,-0.22584763479601197
2313513513.5135136,-0.22689600282055628
2314414414.4144144,-0.2279443708451004
2315315315.3153152,-0.22899273886964472
2316216216.216216,-0.2300411068941889
2317117117.117117,-0.231541835085958
2318018018.018018,-0.23701426342566898
2318918918.918919,-0.24248669176538296
2319819819.81982,-0.24795912010509383
2320720720.720721,-0.2534315484448049
2321621621.6216216,-0.2579532231703558
2322522522.5225224,-0.25456081594680213
2323423423.4234233,-0.2511684087232486
2324324324.3243246,-0.2477760014996932
2325225225.2252254,-0.24438359427613957
2326126126.1261263,-0.2410916971924836
2327027027.027027,-0.2385947032419587
2327927927.927928,-0.23609770929143375
2328828828.828829,-0.2336007153409089
2329729729.7297297,-0.231103721390384
2330630630.6306305,-0.2290242790945826
2331531531.5315313,-0.23008849328669295
2332432432.4324327,-0.23115270747880387
2333333333.3333335,-0.23221692167091432
2334234234.2342343,-0.23328113586302476
2335135135.135135,-0.23418988778348
2336036036.036036,-0.23398242695182705
2336936936.936937,-0.23377496612017407
2337837837.8378377,-0.23356750528852105
2338738738.738739,-0.23336004445686803
2339639639.63964,-0.233153093299152
2340540540.5405407,-0.23294963776366365
2341441441.4414415,-0.2327461822281752
2342342342.3423424,-0.2325427266926868
2343243243.243243,-0.23233927115719838
2344144144.144144,-0.2322904861917253
2345045045.045045,-0.23325656237658024
2345945945.9459457,-0.23422263856143513
2346846846.846847,-0.2351887147462906
2347747747.747748,-0.2361547909311455
2348648648.6486487,-0.23671777527027454
2349549549.5495496,-0.23474693454638254
2350450450.4504504,-0.23277609382249037
2351351351.3513513,-0.23080525309859828
2352252252.252252,-0.22883441237470623
2353153153.1531534,-0.2277795129990076
2354054054.0540543,-0.23224762727119655
2354954954.954955,-0.23671574154338546
2355855855.855856,-0.2411838558155744
2356756756.756757,-0.24565197008776335
2357657657.6576576,-0.2495035377324649
2358558558.5585585,-0.24978457813377103
2359459459.4594593,-0.2500656185350773
2360360360.36036,-0.2503466589363835
2361261261.2612615,-0.25062769933768997
2362162162.1621623,-0.2510322262631868
2363063063.063063,-0.2521243439990772
2363963963.963964,-0.25321646173496776
2364864864.864865,-0.25430857947085816
2365765765.7657657,-0.2554006972067487
2366666666.6666665,-0.2570887234479836
2367567567.567568,-0.2619704024261356
2368468468.4684687,-0.26685208140428496
2369369369.3693695,-0.27173376038243435
2370270270.2702703,-0.2766154393605837
2371171171.171171,-0.2810108473543235
2372072072.072072,-0.2828954786627686
2372972972.972973,-0.2847801099712138
2373873873.8738737,-0.2866647412796589
2374774774.7747746,-0.288549372588104
2375675675.675676,-0.2900852705388669
2376576576.5765767,-0.28988479955922297
2377477477.4774776,-0.28968432857957915
2378378378.3783784,-0.2894838575999353
2379279279.279279,-0.2892833866202914
2380180180.18018,-0.28940579823467916
2381081081.081081,-0.2910798270752486
2381981981.981982,-0.29275385591581904
2382882882.882883,-0.2944278847563885
2383783783.783784,-0.29610191359695803
2384684684.6846848,-0.29761352321752615
2385585585.5855856,-0.2983712235954644
2386486486.4864864,-0.2991289239734026
2387387387.3873873,-0.299886624351341
2388288288.288288,-0.30064432472927927
2389189189.189189,-0.30126067532680134
2390090090.0900903,-0.30124279391919023
2390990990.990991,-0.30122491251157923
2391891891.891892,-0.3012070311039681
2392792792.792793,-0.301189149696357
2393693693.6936936,-0.30171179686550675
2394594594.5945945,-0.30458058342457633
2395495495.4954953,-0.3074493699836458
2396396396.3963966,-0.3103181565427168
2397297297.2972975,-0.31318694310178635
2398198198.1981983,-0.3160441178576876
2399099099.099099,-0.318852504920433
2400000000.0,-0.32166089198317827
2400900900.900901,-0.32446927904592365
2401801801.8018017,-0.32727766610866893
2402702702.7027025,-0.3297954900446472
2403603603.6036034,-0.3311308067562271
2404504504.5045047,-0.3324661234678076
2405405405.4054055,-0.3338014401793874
2406306306.3063064,-0.3351367568909673
2407207207.207207,-0.33718913114365845
2408108108.108108,-0.342069849789039
2409009009.009009,-0.34695056843441974
2409909909.9099097,-0.35183128707980027
2410810810.810811,-0.3567120057251833
2411711711.711712,-0.3594620660147994
2412612612.6126127,-0.35406216533201357
2413513513.5135136,-0.34866226464922767
2414414414.4144144,-0.3432623639664418
2415315315.3153152,-0.33786246328365604
2416216216.216216,-0.33451699008944485
2417117117.117117,-0.33879637086049164
2418018018.0180182,-0.3430757516315407
2418918918.918919,-0.34735513240258753
2419819819.81982,-0.35163451317363437
2420720720.720721,-0.3546903926145436
2421621621.6216216,-0.35333800661856174
2422522522.5225224,-0.35198562062257976
2423423423.4234233,-0.3506332346265978
2424324324.3243246,-0.3492808486306152
2425225225.2252254,-0.3484934495410354
2426126126.1261263,-0.34968318685844635
2427027027.027027,-0.35087292417585714
2427927927.927928,-0.35206266149326815
2428828828.828829,-0.35325239881067894
2429729729.7297297,-0.35545371643100565
2430630630.6306305,-0.36109485222109483
2431531531.5315313,-0.3667359880111839
2432432432.4324327,-0.3723771238012761
2433333333.3333335,-0.37801825959136526
2434234234.2342343,-0.383567577694025
2435135135.135135,-0.38881337360282564
2436036036.036036,-0.3940591695116263
2436936936.936937,-0.3993049654204269
2437837837.8378377,-0.4045507613292275
2438738738.738739,-0.41000511736772116
2439639639.63964,-0.41612998653127453
2440540540.5405407,-0.422254855694828
2441441441.4414415,-0.4283797248583814
2442342342.3423424,-0.43450459402193486
2443243243.243243,-0.43898017411303936
2444144144.144144,-0.43829683245121
2445045045.045045,-0.4376134907893806
2445945945.9459457,-0.43693014912755135
2446846846.846847,-0.43624680746572164
2447747747.747748,-0.43740535325910257
2448648648.6486487,-0.44417150585494375
2449549549.5495496,-0.4509376584507849
2450450450.4504504,-0.457703811046626
2451351351.3513513,-0.4644699636424671
2452252252.252252,-0.4709082281938043
2453153153.1531534,-0.47637452729310026
2454054054.0540543,-0.4818408263923935
2454954954.954955,-0.4873071254916866
2455855855.855856,-0.4927734245909797
2456756756.756757,-0.4972404088298451
