Freq (Hz),s21avg
1600000000.0,-0.11814598967554185
1601401401.4014015,-0.12096236992820124
1602802802.8028028,-0.12380387392761519
1604204204.2042043,-0.1271038681697841
1605605605.6056056,-0.1304038624119524
1607007007.0070071,-0.13370385665412118
1608408408.4084084,-0.13700385089628953
1609809809.80981,-0.14021972298153432
1611211211.2112112,-0.14204259418728532
1612612612.6126127,-0.14386546539303666
1614014014.014014,-0.14568833659878772
1615415415.4154155,-0.1475112078045391
1616816816.8168168,-0.14936139195015735
1618218218.2182183,-0.1516251499979952
1619619619.6196196,-0.15388890804583258
1621021021.0210211,-0.15615266609367023
1622422422.4224224,-0.1584164241415076
1623823823.823824,-0.16039109589499162
1625225225.2252252,-0.15833691078594458
1626626626.6266267,-0.15628272567689705
1628028028.028028,-0.15422854056784993
1629429429.4294295,-0.15217435545880248
1630830830.8308308,-0.15040180441802506
1632232232.2322323,-0.15226192185615803
1633633633.6336336,-0.15412203929429083
1635035035.0350351,-0.15598215673242397
1636436436.4364364,-0.15784227417055674
1637837837.837838,-0.1595041747068022
1639239239.2392392,-0.15878837399175197
1640640640.6406407,-0.1580725732767015
1642042042.042042,-0.15735677256165123
1643443443.4434435,-0.1566409718466009
1644844844.8448448,-0.15616101902758492
1646246246.2462463,-0.15832316701338128
1647647647.6476476,-0.16048531499917723
1649049049.0490491,-0.1626474629849735
1650450450.4504504,-0.16480961097076946
1651851851.851852,-0.16692244400472067
1653253253.2532532,-0.1685174275069616
1654654654.6546547,-0.17011241100920305
1656056056.056056,-0.17170739451144384
1657457457.4574575,-0.1733023780136852
1658858858.8588588,-0.174650668956078
1660260260.2602603,-0.1735627534931397
1661661661.6616616,-0.17247483803020155
1663063063.0630631,-0.17138692256726318
1664464464.4644644,-0.17029900710432508
1665865865.865866,-0.16945470902815546
1667267267.2672672,-0.17087960828175866
1668668668.6686687,-0.17230450753536208
1670070070.07007,-0.17372940678896506
1671471471.4714715,-0.17515430604256835
1672872872.8728728,-0.17646407748949533
1674274274.2742743,-0.17675971919845762
1675675675.6756756,-0.17705536090741977
1677077077.0770772,-0.17735100261638212
1678478478.4784784,-0.17764664432534427
1679879879.87988,-0.17814359044027697
1681281281.2812812,-0.18032146128407206
1682682682.6826828,-0.18249933212786756
1684084084.084084,-0.18467720297166287
1685485485.4854856,-0.18685507381545835
1686886886.8868868,-0.18867904138716565
1688288288.2882884,-0.1876956503096748
1689689689.6896896,-0.18671225923218412
1691091091.0910912,-0.1857288681546933
1692492492.4924924,-0.18474547707720254
1693893893.893894,-0.18413206914364472
1695295295.2952952,-0.1863122791258614
1696696696.6966968,-0.18849248910807836
1698098098.098098,-0.19067269909029508
1699499499.4994996,-0.1928529090725121
1700900900.9009008,-0.19480740392246118
1702302302.3023024,-0.19513673131125764
1703703703.7037036,-0.19546605870005393
1705105105.1051052,-0.1957953860888503
1706506506.5065064,-0.19612471347764668
1707907907.907908,-0.1967585395473018
1709309309.3093092,-0.19948643866401083
1710710710.7107108,-0.20221433778072037
1712112112.112112,-0.20494223689742952
1713513513.5135136,-0.20767013601413908
1714914914.9149148,-0.2095730260172971
1716316316.3163164,-0.2060484877444537
1717717717.7177176,-0.20252394947161093
1719119119.1191192,-0.19899941119876757
1720520520.5205204,-0.195474872925925
1721921921.921922,-0.19294859140674914
1723323323.3233232,-0.196713259075252
1724724724.7247248,-0.20047792674375525
1726126126.126126,-0.2042425944122578
1727527527.5275276,-0.2080072620807612
1728928928.9289289,-0.21141256972723024
1730330330.3303304,-0.2126456416082462
1731731731.7317317,-0.2138787134892619
1733133133.1331332,-0.21511178537027803
1734534534.5345345,-0.2163448572512937
1735935935.935936,-0.21724283894179572
1737337337.3373373,-0.21619561010478472
1738738738.7387388,-0.21514838126777383
1740140140.14014,-0.21410115243076303
1741541541.5415416,-0.213053923593752
1742942942.9429429,-0.21268115517479058
1744344344.3443444,-0.2160726260287935
1745745745.7457457,-0.219464096882796
1747147147.1471472,-0.22285556773679902
1748548548.5485485,-0.22624703859080145
1749949949.94995,-0.22884560989164118
1751351351.3513513,-0.22718515622724225
1752752752.7527528,-0.22552470256284318
1754154154.154154,-0.22386424889844414
1755555555.5555556,-0.22220379523404496
1756956956.9569569,-0.22106596828698638
1758358358.3583584,-0.22263260148483288
1759759759.75976,-0.22419923468267944
1761161161.1611612,-0.22576586788052563
1762562562.5625625,-0.2273325010783718
1763963963.963964,-0.2291318274842848
1765365365.3653655,-0.23209225048785978
1766766766.7667668,-0.23505267349143458
1768168168.168168,-0.23801309649500907
1769569569.5695696,-0.24097351949858425
1770970970.970971,-0.24354097469831604
1772372372.3723724,-0.24421603681882498
1773773773.7737737,-0.24489109893933425
1775175175.1751752,-0.24556616105984322
1776576576.5765767,-0.24624122318035252
1777977977.977978,-0.2474204775784937
1779379379.3793793,-0.2509448885412295
1780780780.7807808,-0.2544692995039659
1782182182.1821823,-0.25799371046670244
1783583583.5835836,-0.2615181214294385
1784984984.9849849,-0.26439373891017426
1786386386.3863864,-0.26435237091165553
1787787787.787788,-0.26431100291313675
1789189189.1891892,-0.264269634914618
1790590590.5905905,-0.26422826691609935
1791991991.991992,-0.2646577782371088
1793393393.3933935,-0.2671351549271605
1794794794.7947948,-0.2696125316172118
1796196196.196196,-0.2720899083072633
1797597597.5975976,-0.27456728499731503
1798998998.998999,-0.2770374044921564
1800400400.4004004,-0.27947697344472205
1801801801.8018017,-0.28191654239728775
1803203203.2032032,-0.2843561113498536
1804604604.6046047,-0.28679568030241975
1806006006.006006,-0.28854779432869754
1807407407.4074075,-0.2874968584511648
1808808808.8088088,-0.28644592257363183
1810210210.2102103,-0.2853949866960989
1811611611.6116116,-0.28434405081856623
1813013013.0130131,-0.28475968715596456
1814414414.4144144,-0.2909708073068086
1815815815.815816,-0.2971819274576535
1817217217.2172172,-0.3033930476084973
1818618618.6186187,-0.30960416775934246
1820020020.02002,-0.3152495345021849
1821421421.4214215,-0.3187268860712394
1822822822.8228228,-0.3222042376402932
1824224224.2242243,-0.32568158920934764
1825625625.6256256,-0.3291589407784014
1827027027.0270271,-0.3320959307323239
1828428428.4284284,-0.33302380546659627
1829829829.82983,-0.3339516802008691
1831231231.2312312,-0.3348795549351414
1832632632.6326327,-0.3358074296694141
1834034034.034034,-0.33722095956932585
1835435435.4354355,-0.34038739233835
1836836836.8368368,-0.3435538251073737
1838238238.2382383,-0.3467202578763978
1839639639.6396396,-0.3498866906454212
1841041041.0410411,-0.3538327823546647
1842442442.4424424,-0.3605119834959287
1843843843.843844,-0.36719118463719375
1845245245.2452452,-0.3738703857784579
1846646646.6466467,-0.38054958691972307
1848048048.048048,-0.38670581988164776
1849449449.4494495,-0.39108068888217945
1850850850.8508508,-0.39545555788271
1852252252.2522523,-0.3998304268832419
1853653653.6536536,-0.40420529588377296
1855055055.0550551,-0.4074198533173829
1856456456.4564564,-0.40679230124905785
1857857857.857858,-0.4061647491807331
1859259259.2592592,-0.4055371971124083
1860660660.6606607,-0.4049096450440834
1862062062.062062,-0.40482492160785405
1863463463.4634635,-0.4064882690208368
1864864864.8648648,-0.40815161643381936
1866266266.2662663,-0.4098149638468021
1867667667.6676676,-0.4114783112597842
1869069069.0690691,-0.4135757175963127
1870470470.4704704,-0.4170330675864633
1871871871.871872,-0.42049041757661426
1873273273.2732732,-0.42394776756676467
1874674674.6746747,-0.42740511755691607
1876076076.076076,-0.4317076385677847
1877477477.4774776,-0.43858742638226716
1878878878.8788788,-0.44546721419674834
1880280280.2802804,-0.45234700201123074
1881681681.6816816,-0.4592267898257119
1883083083.0830832,-0.46507378740305805
1884484484.4844844,-0.4678543879298404
1885885885.885886,-0.4706349884566223
1887287287.2872872,-0.4734155889834043
1888688688.6886888,-0.47619618951018666
1890090090.09009,-0.4791899866628277
1891491491.4914916,-0.4828003074692718
1892892892.8928928,-0.48641062827571496
1894294294.2942944,-0.4900209490821593
1895695695.6956956,-0.49363126988860273
1897097097.0970972,-0.49728239617439907
1898498498.4984984,-0.5010484928134522
1899899899.8999,-0.5048145894525065
1901301301.3013012,-0.5085806860915593
1902702702.7027028,-0.5123467827306132
1904104104.104104,-0.516985805840333
1905505505.5055056,-0.5240219023695062
1906906906.9069068,-0.5310579988986778
1908308308.3083084,-0.5380940954278505
1909709709.7097096,-0.5451301919570224
1911111111.1111112,-0.5518647638539634
1912512512.5125124,-0.5577921101267223
1913913913.913914,-0.563719456399482
1915315315.3153152,-0.5696468026722407
1916716716.7167168,-0.5755741489450006
1918118118.1181183,-0.5808429425370866
1919519519.5195196,-0.584392413089776
1920920920.9209208,-0.5879418836424655
1922322322.3223224,-0.5914913541951552
1923723723.723724,-0.5950408247478451
1925125125.1251252,-0.599080826572439
1926526526.5265265,-0.604370078192354
1927927927.927928,-0.6096593298122702
1929329329.3293295,-0.6149485814321862
1930730730.7307308,-0.6202378330521011
1932132132.132132,-0.6256101073975113
1933533533.5335336,-0.631188687212217
1934934934.934935,-0.6367672670269229
1936336336.3363364,-0.6423458468416272
1937737737.7377377,-0.6479244266563318
1939139139.1391392,-0.6527689948345354
1940540540.5405407,-0.6558334056596794
1941941941.941942,-0.6588978164848243
1943343343.3433433,-0.6619622273099682
1944744744.7447448,-0.6650266381351129
1946146146.1461463,-0.6696786311638732
1947547547.5475476,-0.6780893366635936
1948948948.9489489,-0.6865000421633135
1950350350.3503504,-0.6949107476630354
1951751751.751752,-0.703321453162757
1953153153.1531532,-0.7109641271036757
1954554554.5545545,-0.7168312606252517
1955955955.955956,-0.7226983941468288
1957357357.3573575,-0.7285655276684052
1958758758.7587588,-0.734432661189981
1960160160.16016,-0.7416640637299566
1961561561.5615616,-0.7519757941513535
1962962962.962963,-0.7622875245727512
1964364364.3643644,-0.7725992549941476
1965765765.7657657,-0.7829109854155434
1967167167.1671672,-0.7914019570494822
1968568568.5685687,-0.7958769867577583
1969969969.96997,-0.8003520164660334
1971371371.3713713,-0.804827046174308
1972772772.7727728,-0.809302075882584
1974174174.1741743,-0.8147539371654494
1975575575.5755756,-0.8223109406064553
1976976976.9769769,-0.8298679440474611
1978378378.3783784,-0.8374249474884686
1979779779.77978,-0.8449819509294763
1981181181.1811812,-0.8545714320569121
1982582582.5825825,-0.8684414582854012
1983983983.983984,-0.8823114845138919
1985385385.3853855,-0.8961815107423825
1986786786.7867868,-0.9100515369708713
1988188188.188188,-0.9221426518107952
1989589589.5895896,-0.9305717501036227
1990990990.990991,-0.9390008483964506
1992392392.3923924,-0.9474299466892766
1993793793.7937937,-0.9558590449821025
1995195195.1951952,-0.9663058328274624
1996596596.5965967,-0.9808132246962287
1997997997.997998,-0.9953206165649929
1999399399.3993993,-1.0098280084337563
2000800800.8008008,-1.0243354003025225
2002202202.2022023,-1.0382360418029648
2003603603.6036036,-1.0509427203067654
2005005005.0050051,-1.06364939881057
2006406406.4064064,-1.0763560773143708
2007807807.807808,-1.0890627558181738
2009209209.2092092,-1.1013011699702944
2010610610.6106107,-1.1126384542595036
2012012012.012012,-1.1239757385487104
2013413413.4134135,-1.1353130228379198
2014814814.8148148,-1.1466503071271266
2016216216.2162163,-1.158496842538696
2017617617.6176176,-1.1713019208107822
2019019019.0190191,-1.1841069990828714
2020420420.4204204,-1.1969120773549582
2021821821.821822,-1.2097171556270476
2023223223.2232232,-1.2222793331241102
2024624624.6246247,-1.2343942543425706
2026026026.026026,-1.246509175561029
2027427427.4274275,-1.2586240967794886
2028828828.8288288,-1.2707390179979468
2030230230.2302303,-1.2838828749950724
2031631631.6316316,-1.298880372985247
2033033033.0330331,-1.3138778709754237
2034434434.4344344,-1.328875368965599
2035835835.835836,-1.3438728669557758
2037237237.2372372,-1.359499481915614
2038638638.6386387,-1.3762351121606975
2040040040.04004,-1.392970742405779
2041441441.4414415,-1.4097063726508627
2042842842.8428428,-1.4264420028959446
2044244244.2442443,-1.4426225109856297
2045645645.6456456,-1.4578453406982168
2047047047.0470471,-1.4730681704108068
2048448448.4484484,-1.4882910001233944
2049849849.84985,-1.503513829835985
2051251251.2512512,-1.5195271768095535
2052652652.6526527,-1.5368753385855456
2054054054.054054,-1.5542235003615334
2055455455.4554555,-1.5715716621375255
2056856856.8568568,-1.5889198239135138
2058258258.2582583,-1.6051165258534217
2059659659.6596596,-1.619410012377828
2061061061.0610611,-1.6337034989022354
2062462462.4624624,-1.6479969854266416
2063863863.863864,-1.6622904719510498
2065265265.2652652,-1.6779698859066863
2066666666.6666667,-1.6958919296538506
2068068068.068068,-1.7138139734010116
2069469469.4694695,-1.7317360171481753
2070870870.8708708,-1.7496580608953363
2072272272.2722723,-1.7686079978360691
2073673673.6736736,-1.789186439550846
2075075075.0750751,-1.8097648812656275
2076476476.4764764,-1.8303433229804056
2077877877.877878,-1.8509217646951874
2079279279.2792792,-1.8705306274127944
2080680680.6806808,-1.8886353377915097
2082082082.082082,-1.9067400481702217
2083483483.4834836,-1.9248447585489379
2084884884.8848848,-1.9429494689276512
2086286286.2862864,-1.9613665578433483
2087687687.6876876,-1.9802582150339554
2089089089.0890892,-1.9991498722245657
2090490490.4904904,-2.018041529415172
2091891891.891892,-2.036933186605783
2093293293.2932935,-2.055199377224743
2094694694.6946948,-2.072534953878837
2096096096.096096,-2.0898705305329335
2097497497.4974976,-2.1072061071870327
2098898898.898899,-2.1245416838411315
2100300300.3003004,-2.145206507498284
2101701701.7017016,-2.1707230572524105
2103103103.1031032,-2.1962396070065426
2104504504.5045047,-2.221756156760671
2105905905.905906,-2.247272706514798
2107307307.3073072,-2.269707209019678
2108708708.7087088,-2.2877421536051044
2110110110.1101103,-2.305777098190532
2111511511.5115116,-2.323812042775954
2112912912.9129128,-2.341846987361379
2114314314.3143144,-2.3603882611920346
2115715715.715716,-2.379637570198206
2117117117.1171172,-2.3988868792043743
2118518518.5185184,-2.418136188210542
2119919919.91992,-2.4373854972167117
2121321321.3213215,-2.45799610535396
2122722722.7227228,-2.480471623937273
2124124124.124124,-2.502947142520587
2125525525.5255256,-2.5254226611039043
2126926926.926927,-2.54789817968722
2128328328.3283284,-2.5710842082121155
2129729729.7297297,-2.595223879369691
2131131131.1311312,-2.6193635505272694
2132532532.5325327,-2.64350322168485
2133933933.933934,-2.6676428928424247
2135335335.3353353,-2.691012365234245
2136736736.7367368,-2.713368962504208
2138138138.1381383,-2.735725559774171
2139539539.5395396,-2.758082157044131
2140940940.9409409,-2.780438754314092
2142342342.3423424,-2.8035457167247637
2143743743.743744,-2.8276195931816095
2145145145.1451452,-2.851693469638451
2146546546.5465465,-2.8757673460952926
2147947947.947948,-2.8998412225521384
2149349349.3493495,-2.924364596900404
2150750750.7507505,-2.9494555519666283
2152152152.152152,-2.9745465070328616
2153553553.5535536,-2.9996374620990958
2154954954.954955,-3.024728417165329
2156356356.3563566,-3.050818424339941
2157757757.7577577,-3.07814464533832
2159159159.159159,-3.1054708663367103
2160560560.5605607,-3.1327970873351
2161961961.9619617,-3.1601233083334783
2163363363.3633633,-3.1874318638281993
2164764764.764765,-3.2147189975300483
2166166166.1661663,-3.2420061312319
2167567567.567568,-3.2692932649337507
2168968968.968969,-3.296580398635596
2170370370.3703704,-3.32361638311801
2171771771.771772,-3.3503538960310717
2173173173.173173,-3.3770914089441266
2174574574.5745745,-3.4038289218571895
2175975975.975976,-3.4305664347702534
2177377377.3773775,-3.4580601005201617
2178778778.778779,-3.486434485035878
2180180180.18018,-3.514808869551585
2181581581.5815816,-3.543183254067301
2182982982.982983,-3.5715576385830174
2184384384.384384,-3.6002437666247027
2185785785.7857857,-3.6292857676432164
2187187187.187187,-3.6583277686617284
2188588588.5885887,-3.6873697696802377
2189989989.98999,-3.716411770698749
2191391391.3913913,-3.746732839090567
2192792792.792793,-3.7784850157067367
2194194194.1941943,-3.8102371923229055
2195595595.5955954,-3.8419893689390623
2196996996.996997,-3.8737415455552315
2198398398.3983984,-3.9050532324009652
2199799799.7998,-3.935881853570157
2201201201.2012014,-3.9667104747393522
2202602602.6026025,-3.9975390959085324
2204004004.004004,-4.028367717077727
2205405405.4054055,-4.057956255266889
2206806806.8068066,-4.086211823256222
2208208208.208208,-4.114467391245566
2209609609.6096096,-4.14272295923491
2211011011.011011,-4.1709785272242526
2212412412.4124126,-4.201359420344332
2213813813.8138137,-4.233979553752572
2215215215.215215,-4.2665996871608245
2216616616.6166167,-4.299219820569074
2218018018.018018,-4.3318399539773145
2219419419.4194193,-4.362786348861062
2220820820.820821,-4.39200422894173
2222222222.2222223,-4.421222109022397
2223623623.623624,-4.450439989103063
2225025025.025025,-4.479657869183718
2226426426.4264264,-4.5101525062373025
2227827827.827828,-4.541939572298282
2229229229.2292295,-4.573726638359256
2230630630.6306305,-4.605513704420221
2232032032.032032,-4.6373007704811995
2233433433.4334335,-4.669338229504409
2234834834.834835,-4.701624136012113
2236236236.2362366,-4.733910042519819
2237637637.6376376,-4.766195949027508
2239039039.039039,-4.798481855535212
2240440440.4404407,-4.8315823364642405
2241841841.8418417,-4.865475057098227
2243243243.243243,-4.899367777732225
2244644644.6446447,-4.93326049836622
2246046046.0460463,-4.967153219000219
2247447447.447448,-4.9994297021012315
2248848848.848849,-5.030165400500658
2250250250.2502503,-5.060901098900093
2251651651.651652,-5.09163679729953
2253053053.053053,-5.122372495698955
2254454454.4544544,-5.150631938706193
2255855855.855856,-5.176577511576676
2257257257.2572575,-5.202523084447153
2258658658.658659,-5.228468657317629
2260060060.06006,-5.2544142301880985
2261461461.4614615,-5.283806505193855
2262862862.862863,-5.316355588238261
2264264264.264264,-5.348904671282655
2265665665.6656656,-5.381453754327059
2267067067.067067,-5.414002837371463
2268468468.4684687,-5.446379712001358
2269869869.86987,-5.478601992854845
2271271271.271271,-5.510824273708316
2272672672.6726727,-5.543046554561797
2274074074.0740743,-5.575268835415278
2275475475.4754753,-5.607265700434396
2276876876.876877,-5.639064227487037
2278278278.2782784,-5.670862754539683
2279679679.67968,-5.702661281592326
2281081081.0810814,-5.734459808644971
2282482482.4824824,-5.761724548304889
2283883883.883884,-5.785079482112875
2285285285.2852855,-5.808434415920868
2286686686.6866865,-5.831789349728847
2288088088.088088,-5.855144283536832
2289489489.4894896,-5.880174601480796
2290890890.890891,-5.906620935115282
2292292292.2922926,-5.933067268749763
2293693693.6936936,-5.95951360238424
2295095095.095095,-5.985959936018729
2296496496.4964967,-6.012861964310871
2297897897.8978977,-6.040141453915105
2299299299.2992992,-6.0674209435193465
2300700700.7007008,-6.094700433123589
2302102102.1021023,-6.121979922727834
2303503503.503504,-6.148955913449516
2304904904.904905,-6.175685536430758
2306306306.3063064,-6.202415159412009
2307707707.707708,-6.229144782393258
2309109109.109109,-6.255874405374504
2310510510.5105104,-6.280240352533277
2311911911.911912,-6.302726011384042
2313313313.3133135,-6.325211670234804
2314714714.714715,-6.347697329085568
2316116116.116116,-6.370182987936318
2317517517.5175176,-6.393246811323562
2318918918.918919,-6.416761324229798
2320320320.32032,-6.440275837136025
2321721721.7217216,-6.463790350042267
2323123123.123123,-6.487304862948508
