Freq (Hz),s21avg
2000000000.0,-0.3021514417761984
2001001001.0010011,-0.3127879370763421
2002002002.002002,-0.3234129224903152
2003003003.0030031,-0.3282944747063968
2004004004.004004,-0.333176026922477
2005005005.0050051,-0.33805757913855855
2006006006.006006,-0.3429391313546388
2007007007.0070071,-0.34784058090191483
2008008008.008008,-0.355564609002881
2009009009.0090091,-0.363288637103849
2010010010.01001,-0.3710126652048152
2011011011.0110111,-0.37873669330578313
2012012012.012012,-0.38642043645335494
2013013013.0130131,-0.3907873851047955
2014014014.014014,-0.395154333756235
2015015015.0150151,-0.3995212824076755
2016016016.016016,-0.40388823105911503
2017017017.0170171,-0.4083246418794035
2018018018.018018,-0.4167776004630509
2019019019.0190191,-0.4252305590467003
2020020020.02002,-0.43368351763034774
2021021021.0210211,-0.4421364762139971
2022022022.022022,-0.4507226203755197
2023023023.0230231,-0.4652294688625912
2024024024.024024,-0.4797363173496595
2025025025.0250251,-0.494243165836731
2026026026.026026,-0.5087500143237991
2027027027.0270271,-0.5229835972751995
2028028028.028028,-0.5273694999967116
2029029029.0290291,-0.5317554027182247
2030030030.03003,-0.5361413054397366
2031031031.0310311,-0.5405272081612498
2032032032.032032,-0.5446420415407363
2033033033.0330331,-0.5405570273239434
2034034034.034034,-0.5364720131071513
2035035035.0350351,-0.5323869988903583
2036036036.036036,-0.5283019846735663
2037037037.0370371,-0.5247418703428596
2038038038.038038,-0.5348433395337671
2039039039.0390391,-0.544944808724677
2040040040.04004,-0.5550462779155847
2041041041.0410411,-0.5651477471064945
2042042042.042042,-0.5751406823747802
2043043043.0430431,-0.5826580105508865
2044044044.044044,-0.5901753387269909
2045045045.0450451,-0.5976926669030972
2046046046.046046,-0.6052099950792016
2047047047.0470471,-0.6130574157049645
2048048048.048048,-0.6275979874907707
2049049049.0490491,-0.6421385592765805
2050050050.05005,-0.6566791310623868
2051051051.0510511,-0.6712197028481967
2052052052.052052,-0.6855514164184532
2053053053.0530531,-0.6960754840590724
2054054054.054054,-0.7065995516996889
2055055055.0550551,-0.7171236193403081
2056056056.056056,-0.7276476869809247
2057057057.0570571,-0.7376909779821211
2058058058.058058,-0.7397803677381405
2059059059.0590591,-0.7418697574941604
2060060060.06006,-0.7439591472501799
2061061061.0610611,-0.7460485370061998
2062062062.062062,-0.7487921506765953
2063063063.0630631,-0.7614335390515895
2064064064.064064,-0.7740749274265808
2065065065.0650651,-0.7867163158015751
2066066066.066066,-0.7993577041765664
2067067067.0670671,-0.8113632911537889
2068068068.068068,-0.8145151064277212
2069069069.0690691,-0.817666921701654
2070070070.07007,-0.820818736975586
2071071071.0710711,-0.8239705522495189
2072072072.072072,-0.8278188751834428
2073073073.0730731,-0.840644407957267
2074074074.074074,-0.8534699407310884
2075075075.0750751,-0.8662954735049126
2076076076.076076,-0.8791210062787341
2077077077.0770772,-0.8914034203605746
2078078078.078078,-0.8971754636281201
2079079079.0790792,-0.9029475068956669
2080080080.08008,-0.9087195501632124
2081081081.0810812,-0.9144915934307593
2082082082.082082,-0.9209043820966013
2083083083.0830832,-0.9344903936360642
2084084084.084084,-0.9480764051755237
2085085085.0850852,-0.9616624167149865
2086086086.086086,-0.9752484282544464
2087087087.0870872,-0.9877184362909478
2088088088.088088,-0.9884768213595999
2089089089.0890892,-0.9892352064282521
2090090090.09009,-0.989993591496904
2091091091.0910912,-0.9907519765655562
2092092092.092092,-0.9923215020305622
2093093093.0930932,-1.0018966305378518
2094094094.094094,-1.011471759045139
2095095095.0950952,-1.0210468875524283
2096096096.096096,-1.0306220160597155
2097097097.0970972,-1.0404975771186866
2098098098.098098,-1.0531699484268127
2099099099.0990992,-1.0658423197349414
2100100100.1001,-1.0785146910430676
2101101101.1011012,-1.0911870623511968
2102102102.102102,-1.1035669360608855
2103103103.1031032,-1.1133716838549252
2104104104.104104,-1.1231764316489627
2105105105.1051052,-1.1329811794430023
2106106106.106106,-1.14278592723704
2107107107.1071072,-1.152545134878482
2108108108.108108,-1.1619242737697424
2109109109.1091092,-1.1713034126610051
2110110110.11011,-1.1806825515522654
2111111111.1111112,-1.1900616904435277
2112112112.112112,-1.19904422221462
2113113113.1131132,-1.2048822261043781
2114114114.114114,-1.210720229994135
2115115115.1151152,-1.2165582338838932
2116116116.116116,-1.22239623777365
2117117117.1171172,-1.22874111359298
2118118118.118118,-1.2389113561970242
2119119119.1191192,-1.2490815988010708
2120120120.12012,-1.2592518414051148
2121121121.1211212,-1.269422084009161
2122122122.122122,-1.2796394779714966
2123123123.1231232,-1.2901962071189153
2124124124.124124,-1.3007529362663317
2125125125.1251252,-1.3113096654137506
2126126126.126126,-1.321866394561167
2127127127.1271272,-1.3320174125871553
2128128128.128128,-1.3393795659752779
2129129129.1291292,-1.3467417193634017
2130130130.13013,-1.354103872751524
2131131131.1311312,-1.361466026139648
2132132132.132132,-1.3686583627152575
2133133133.1331332,-1.3747340250994975
2134134134.134134,-1.3808096874837357
2135135135.1351352,-1.3868853498679756
2136136136.136136,-1.392961012252214
2137137137.1371372,-1.3998739298275167
2138138138.138138,-1.4120609439713374
2139139139.1391392,-1.4242479581151606
2140140140.14014,-1.436434972258981
2141141141.1411412,-1.4486219864028045
2142142142.142142,-1.4609792853463441
2143143143.1431432,-1.4743654882205863
2144144144.144144,-1.4877516910948252
2145145145.1451452,-1.5011378939690672
2146146146.146146,-1.514524096843306
2147147147.1471472,-1.5269189616868384
2148148148.148148,-1.5335613684338016
2149149149.149149,-1.5402037751807647
2150150150.1501503,-1.5468461819277313
2151151151.151151,-1.5534885886746947
2152152152.152152,-1.5615980131827152
2153153153.153153,-1.5778918525682193
2154154154.1541543,-1.5941856919537307
2155155155.155155,-1.6104795313392344
2156156156.156156,-1.6267733707247385
2157157157.157157,-1.642919490543818
2158158158.1581583,-1.6582724409712106
2159159159.159159,-1.6736253913985961
2160160160.16016,-1.6889783418259814
2161161161.161161,-1.7043312922533667
2162162162.1621623,-1.7195653402361113
2163163163.163163,-1.7341843249557947
2164164164.164164,-1.7488033096754783
2165165165.165165,-1.7634222943951616
2166166166.1661663,-1.778041279114852
2167167167.167167,-1.7928622925782267
2168168168.168168,-1.8086910302541432
2169169169.169169,-1.824519767930059
2170170170.1701703,-1.8403485056059836
2171171171.171171,-1.8561772432819001
2172172172.172172,-1.8709504085060176
2173173173.173173,-1.8806420970435664
2174174174.1741743,-1.8903337855811198
2175175175.175175,-1.9000254741186695
2176176176.176176,-1.9097171626562175
2177177177.177177,-1.9205888141439469
2178178178.1781783,-1.9369469600271614
2179179179.179179,-1.9533051059103677
2180180180.18018,-1.9696632517935744
2181181181.181181,-1.9860213976767809
2182182182.1821823,-2.0045750509510976
2183183183.183183,-2.0329964242579335
2184184184.184184,-2.0614177975647685
2185185185.1851854,-2.0898391708716173
2186186186.1861863,-2.118260544178453
2187187187.187187,-2.1444496785600715
2188188188.188188,-2.160933945314947
2189189189.189189,-2.1774182120698216
2190190190.1901903,-2.193902478824705
2191191191.191191,-2.2103867455795805
2192192192.192192,-2.229339550277199
2193193193.1931934,-2.258680785483881
2194194194.1941943,-2.288022020690549
2195195195.195195,-2.3173632558972175
2196196196.196196,-2.3467044911038855
2197197197.197197,-2.374844907029408
2198198198.1981983,-2.3980906128901656
2199199199.199199,-2.421336318750911
2200200200.2002,-2.4445820246116576
2201201201.2012014,-2.467827730472415
2202202202.2022023,-2.491865270078857
2203203203.203203,-2.519030944977697
2204204204.204204,-2.546196619876537
2205205205.205205,-2.573362294775376
2206206206.2062063,-2.600527969674229
2207207207.207207,-2.630775146230887
2208208208.208208,-2.6728273025684586
2209209209.2092094,-2.714879458906051
2210210210.2102103,-2.7569316152436234
2211211211.211211,-2.798983771581195
2212212212.212212,-2.8387503693643916
2213213213.213213,-2.870021589124712
2214214214.2142143,-2.901292808885049
2215215215.215215,-2.9325640286453694
2216216216.216216,-2.9638352484056902
2217217217.2172174,-2.998104153107201
2218218218.2182183,-3.043189589186278
2219219219.219219,-3.088275025265355
2220220220.22022,-3.1333604613444326
2221221221.221221,-3.1784458974235097
2222222222.2222223,-3.2218779656454317
2223223223.223223,-3.259515798764258
2224224224.224224,-3.2971536318830843
2225225225.2252254,-3.3347914650019286
2226226226.2262263,-3.3724292981207555
2227227227.227227,-3.4117843193613973
2228228228.228228,-3.456986857862669
2229229229.229229,-3.502189396363941
2230230230.2302303,-3.5473919348652343
2231231231.231231,-3.5925944733665056
2232232232.232232,-3.6398769597708855
2233233233.2332335,-3.694044790957997
2234234234.2342343,-3.748212622145085
2235235235.235235,-3.802380453332171
2236236236.236236,-3.8565482845192585
2237237237.2372375,-3.9105068051504106
2238238238.2382383,-3.963791469434714
2239239239.239239,-4.017076133719016
2240240240.24024,-4.070360798003319
2241241241.2412415,-4.123645462287647
2242242242.2422423,-4.179618528082288
2243243243.243243,-4.244012289516741
2244244244.244244,-4.308406050951193
2245245245.2452455,-4.3727998123856775
2246246246.2462463,-4.43719357382013
2247247247.247247,-4.503330455471116
2248248248.248248,-4.574781383774125
2249249249.2492495,-4.646232312077169
2250250250.2502503,-4.717683240380178
2251251251.251251,-4.789134168683188
2252252252.252252,-4.856758896316047
2253253253.2532535,-4.913026488626416
2254254254.2542543,-4.96929408093676
2255255255.255255,-5.025561673247102
2256256256.256256,-5.081829265557446
2257257257.2572575,-5.142714166756642
2258258258.2582583,-5.216947941513765
2259259259.259259,-5.291181716270887
2260260260.26026,-5.365415491028012
2261261261.2612615,-5.439649265785167
2262262262.2622623,-5.513143607664485
2263263263.263263,-5.584555119529222
2264264264.264264,-5.655966631393958
2265265265.2652655,-5.727378143258727
2266266266.2662663,-5.798789655123466
2267267267.267267,-5.8726626609406125
2268268268.268268,-5.953293251278806
2269269269.2692695,-6.033923841617036
2270270270.2702703,-6.114554431955229
2271271271.271271,-6.195185022293421
2272272272.272272,-6.275419429200888
2273273273.2732735,-6.354593462808508
2274274274.2742743,-6.433767496416091
2275275275.275275,-6.512941530023673
2276276276.276276,-6.592115563631256
2277277277.2772775,-6.670105948098144
2278278278.2782784,-6.745006880114633
2279279279.279279,-6.819907812131126
2280280280.28028,-6.894808744147616
2281281281.2812815,-6.969709676164143
2282282282.2822824,-7.045591900801234
2283283283.283283,-7.123972593883687
2284284284.284284,-7.202353286966138
2285285285.2852855,-7.280733980048628
2286286286.2862864,-7.359114673131079
2287287287.287287,-7.438582176942444
2288288288.288288,-7.520749666989749
2289289289.2892895,-7.602917157037096
2290290290.2902904,-7.685084647084404
2291291291.291291,-7.767252137131709
2292292292.292292,-7.843297981660713
2293293293.2932935,-7.904500932261793
2294294294.2942944,-7.965703882862842
2295295295.2952952,-8.026906833463894
2296296296.296296,-8.088109784064942
2297297297.2972975,-8.152802563648242
2298298298.2982984,-8.225755780182686
2299299299.2992992,-8.298708996717131
2300300300.3003,-8.371662213251573
2301301301.3013015,-8.444615429786053
2302302302.3023024,-8.513714068613874
2303303303.3033032,-8.573903782808518
2304304304.304304,-8.634093497003159
2305305305.3053055,-8.694283211197831
2306306306.3063064,-8.75447292539247
2307307307.3073072,-8.813972660330432
2308308308.308308,-8.871914885089627
2309309309.3093095,-8.929857109848852
2310310310.3103104,-8.987799334608049
2311311311.3113112,-9.045741559367245
2312312312.312312,-9.099669561292888
2313313313.3133135,-9.1447456872266
2314314314.3143144,-9.189821813160293
2315315315.3153152,-9.234897939093987
2316316316.316316,-9.27997406502768
2317317317.3173175,-9.321641764688808
2318318318.3183184,-9.355965757270493
2319319319.3193192,-9.390289749852181
2320320320.32032,-9.424613742433868
2321321321.3213215,-9.45893773501557
2322322322.3223224,-9.490064081419614
2323323323.3233232,-9.514457495809864
2324324324.324324,-9.538850910200114
2325325325.3253255,-9.563244324590375
2326326326.3263264,-9.587637738980623
2327327327.3273273,-9.607187360187794
2328328328.328328,-9.616767951388198
2329329329.3293295,-9.626348542588605
2330330330.3303304,-9.63592913378901
2331331331.3313313,-9.645509724989413
2332332332.332332,-9.654008974729141
2333333333.3333335,-9.660332513337146
2334334334.3343344,-9.666656051945148
2335335335.3353353,-9.672979590553153
2336336336.336336,-9.679303129161156
2337337337.3373375,-9.679830482114546
2338338338.3383384,-9.668954656762278
2339339339.3393393,-9.658078831410005
2340340340.34034,-9.647203006057737
2341341341.3413415,-9.636327180705461
2342342342.3423424,-9.623659945243334
2343343343.3433433,-9.607546078634165
2344344344.344344,-9.591432212024996
2345345345.3453455,-9.57531834541582
2346346346.3463464,-9.559204478806652
2347347347.3473473,-9.538647618984024
2348348348.348348,-9.509729737350478
2349349349.3493495,-9.480811855716919
2350350350.3503504,-9.451893974083374
2351351351.3513513,-9.422976092449826
2352352352.352352,-9.388140231367231
2353353353.3533535,-9.342409908117038
2354354354.3543544,-9.29667958486686
2355355355.3553553,-9.250949261616688
2356356356.356356,-9.205218938366512
2357357357.3573575,-9.152505140757334
2358358358.3583584,-9.087213264680887
2359359359.3593593,-9.021921388604444
2360360360.36036,-8.956629512528
2361361361.3613615,-8.89133763645152
2362362362.3623624,-8.830848966440268
2363363363.3633633,-8.778825615405788
2364364364.3643646,-8.726802264371281
2365365365.3653655,-8.674778913336798
2366366366.3663664,-8.622755562302318
2367367367.3673673,-8.564437645205059
2368368368.368368,-8.495262888004973
2369369369.3693695,-8.426088130804853
2370370370.3703704,-8.356913373604765
2371371371.3713713,-8.287738616404681
2372372372.3723726,-8.221884277022976
2373373373.3733735,-8.161635374173468
2374374374.3743744,-8.10138647132396
2375375375.3753753,-8.04113756847445
2376376376.376376,-7.980888665624941
2377377377.3773775,-7.920062625065022
2378378378.3783784,-7.8582828529572115
2379379379.3793793,-7.796503080849402
2380380380.3803806,-7.734723308741562
2381381381.3813815,-7.672943536633753
2382382382.3823824,-7.613532830295966
2383383383.3833833,-7.557954801041626
2384384384.384384,-7.502376771787285
2385385385.3853855,-7.446798742532918
2386386386.3863864,-7.391220713278578
2387387387.3873873,-7.337874898143296
2388388388.3883886,-7.288064864028621
2389389389.3893895,-7.23825482991397
2390390390.3903904,-7.1884447957993185
2391391391.3913913,-7.138634761684666
2392392392.392392,-7.0876467249168185
2393393393.3933935,-7.034831581992966
2394394394.3943944,-6.98201643906914
2395395395.3953953,-6.929201296145313
2396396396.3963966,-6.8763861532214605
2397397397.3973975,-6.829474072485657
2398398398.3983984,-6.791528103838959
2399399399.3993993,-6.7535821351922625
2400400400.4004,-6.715636166545563
2401401401.4014015,-6.677690197898849
2402402402.4024024,-6.638141876806129
2403403403.4034033,-6.596209956801173
2404404404.4044046,-6.554278036796198
2405405405.4054055,-6.512346116791241
2406406406.4064064,-6.470414196786284
2407407407.4074073,-6.435661598459336
2408408408.408408,-6.411369289456863
2409409409.4094095,-6.387076980454376
2410410410.4104104,-6.362784671451901
2411411411.4114113,-6.338492362449427
2412412412.4124126,-6.311903611830154
2413413413.4134135,-6.282037415408295
2414414414.4144144,-6.252171218986438
2415415415.4154153,-6.22230502256458
2416416416.416416,-6.192438826142722
2417417417.4174175,-6.172744804893311
2418418418.4184184,-6.167272313920995
2419419419.4194193,-6.1617998229486775
2420420420.4204206,-6.1563273319763585
2421421421.4214215,-6.150854841004041
2422422422.4224224,-6.145033767057175
2423423423.4234233,-6.138735250078817
2424424424.424424,-6.1324367331004614
2425425425.4254255,-6.1261382161221025
2426426426.4264264,-6.1198396991437445
2427427427.4274273,-6.120849173063434
2428428428.4284286,-6.131665388867395
2429429429.4294295,-6.142481604671351
2430430430.4304304,-6.1532978204753075
2431431431.4314313,-6.164114036279263
2432432432.432432,-6.1740132302729895
2433433433.4334335,-6.182706710405124
2434434434.4344344,-6.1914001905372515
2435435435.4354353,-6.200093670669382
2436436436.4364367,-6.208787150801516
2437437437.4374375,-6.227772534451299
2438438438.4384384,-6.260017281214205
2439439439.4394393,-6.292262027977111
2440440440.44044,-6.324506774740017
2441441441.4414415,-6.3567515215029395
2442442442.4424424,-6.389645406122872
2443443443.4434433,-6.423358790571359
2444444444.4444447,-6.45707217501986
2445445445.4454455,-6.490785559468347
2446446446.4464464,-6.524498943916834
2447447447.4474473,-6.567636134923437
2448448448.448448,-6.622431860665256
2449449449.4494495,-6.677227586407101
2450450450.4504504,-6.732023312148918
2451451451.4514513,-6.786819037890737
2452452452.4524527,-6.848212964209075
2453453453.4534535,-6.917606478836928
2454454454.4544544,-6.986999993464781
2455455455.4554553,-7.056393508092635
2456456456.456456,-7.12578702272049
2457457457.4574575,-7.197905650515989
2458458458.4584584,-7.273262213650652
2459459459.4594593,-7.3486187767853135
2460460460.4604607,-7.423975339920013
2461461461.4614615,-7.499331903054676
2462462462.4624624,-7.581453671709022
2463463463.4634633,-7.671453536834346
2464464464.4644647,-7.76145340195971
2465465465.4654655,-7.851453267085032
2466466466.4664664,-7.941453132210356
2467467467.4674673,-8.039131558189956
2468468468.4684687,-8.145573737778463
2469469469.4694695,-8.252015917366915
2470470470.4704704,-8.35845809695537
2471471471.4714713,-8.464900276543824
2472472472.4724727,-8.57867827431443
2473473473.4734735,-8.70066244157682
2474474474.4744744,-8.822646608839213
2475475475.4754753,-8.944630776101603
2476476476.4764767,-9.066614943364053
2477477477.4774776,-9.188820058264984
2478478478.4784784,-9.311267428123893
2479479479.4794793,-9.4337147979828
2480480480.4804807,-9.556162167841766
2481481481.4814816,-9.678609537700675
2482482482.4824824,-9.810306633658714
2483483483.4834833,-9.951944306627853
2484484484.4844847,-10.09358197959706
2485485485.4854856,-10.235219652566197
2486486486.4864864,-10.376857325535337
2487487487.4874873,-10.516904790330205
2488488488.4884887,-10.655277148773191
2489489489.4894896,-10.793649507216108
2490490490.4904904,-10.932021865659024
2491491491.4914913,-11.07039422410194
2492492492.4924927,-11.20120560001674
2493493493.4934936,-11.324210107792622
2494494494.4944944,-11.447214615568504
2495495495.4954953,-11.570219123344383
2496496496.4964967,-11.693223631120327
2497497497.4974976,-11.812208787574662
2498498498.4984984,-11.927126069351464
2499499499.4994993,-12.042043351128266
2500500500.5005007,-12.156960632905118
2501501501.5015016,-12.27187791468192
2502502502.5025024,-12.353206529081561
2503503503.5035033,-12.401214114887924
2504504504.5045047,-12.449221700694315
2505505505.5055056,-12.49722928650068
2506506506.5065064,-12.545236872307044
2507507507.5075073,-12.587705425848755
2508508508.5085087,-12.624787898707094
2509509509.5095096,-12.661870371565417
2510510510.5105104,-12.698952844423738
2511511511.5115113,-12.73603531728206
2512512512.5125127,-12.738817241476628
2513513513.5135136,-12.708906455226048
2514514514.5145144,-12.678995668975471
2515515515.5155153,-12.649084882724893
2516516516.5165167,-12.6191740964743
2517517517.5175176,-12.574490167248621
2518518518.5185184,-12.516004636365356
2519519519.5195193,-12.457519105482092
2520520520.5205207,-12.399033574598796
2521521521.5215216,-12.340548043715533
2522522522.5225224,-12.262890710138201
2523523523.5235233,-12.16767758788699
2524524524.5245247,-12.072464465635733
2525525525.5255256,-11.977251343384522
