Frequency (Hz),Real Part,Imaginary Part
1600000000.0,-0.776598,0.536336
1607000000.0,-0.753545,0.570852
1614000000.0,-0.722035,0.606878
1621000000.0,-0.704231,0.62614
1628000000.0,-0.668934,0.666091
1635000000.0,-0.631465,0.699526
1642000000.0,-0.591142,0.727904
1649000000.0,-0.556031,0.751593
1656000000.0,-0.51993,0.771583
1663000000.0,-0.485873,0.798346
1670000000.0,-0.442863,0.818328
1677000000.0,-0.407135,0.837088
1684000000.0,-0.360008,0.857204
1691000000.0,-0.320342,0.873626
1698000000.0,-0.275548,0.885399
1705000000.0,-0.237407,0.899177
1712000000.0,-0.189817,0.909375
1719000000.0,-0.148403,0.914143
1726000000.0,-0.109085,0.917345
1733000000.0,-0.061988,0.91903
1740000000.0,-0.014244,0.922274
1747000000.0,0.025956,0.917129
1754000000.0,0.069666,0.909054
1761000000.0,0.117351,0.897814
1768000000.0,0.15394,0.890705
1775000000.0,0.193234,0.879442
1782000000.0,0.240127,0.861263
1789000000.0,0.284898,0.846796
1796000000.0,0.327011,0.830857
1803000000.0,0.365553,0.807913
1810000000.0,0.399929,0.791505
1817000000.0,0.434564,0.768231
1824000000.0,0.46751,0.749663
1831000000.0,0.512375,0.704829
1838000000.0,0.537084,0.68548
1845000000.0,0.564964,0.647167
1852000000.0,0.589497,0.612084
1859000000.0,0.610222,0.587755
1866000000.0,0.641174,0.545679
1873000000.0,0.670064,0.503097
1880000000.0,0.687262,0.457591
1887000000.0,0.704469,0.416684
1894000000.0,0.72042,0.377195
1901000000.0,0.729917,0.333718
1908000000.0,0.736597,0.277433
1915000000.0,0.733866,0.244265
1922000000.0,0.73449,0.200433
1929000000.0,0.731115,0.164429
1936000000.0,0.720808,0.119094
1943000000.0,0.708864,0.078839
1950000000.0,0.691873,0.049862
1957000000.0,0.675839,0.022135
1964000000.0,0.652215,-0.008584
1971000000.0,0.630118,-0.031588
1978000000.0,0.609157,-0.04226
1985000000.0,0.588742,-0.058422
1992000000.0,0.573657,-0.065474
1999000000.0,0.558131,-0.078689
2006000000.0,0.549652,-0.078424
2013000000.0,0.542147,-0.083271
2020000000.0,0.543664,-0.08069
2027000000.0,0.546109,-0.084665
2034000000.0,0.552862,-0.084267
2041000000.0,0.560633,-0.098801
2048000000.0,0.569638,-0.115598
2055000000.0,0.581228,-0.133894
2062000000.0,0.591302,-0.159005
2069000000.0,0.600798,-0.185397
2076000000.0,0.603372,-0.222746
2083000000.0,0.601078,-0.262105
2090000000.0,0.600202,-0.297489
2097000000.0,0.587939,-0.341077
2104000000.0,0.571805,-0.381279
2111000000.0,0.552081,-0.419891
2118000000.0,0.527019,-0.451749
2125000000.0,0.487252,-0.49141
2132000000.0,0.458727,-0.513432
2139000000.0,0.414181,-0.536625
2146000000.0,0.376534,-0.548757
2153000000.0,0.3307,-0.56362
2160000000.0,0.281275,-0.569277
2167000000.0,0.235972,-0.564028
2174000000.0,0.192596,-0.559986
2181000000.0,0.156699,-0.547505
2188000000.0,0.115514,-0.529158
2195000000.0,0.080219,-0.504383
2202000000.0,0.065921,-0.478469
2209000000.0,0.049325,-0.450109
2216000000.0,0.025493,-0.423991
2223000000.0,0.041801,-0.397509
2230000000.0,0.047604,-0.37435
2237000000.0,0.053635,-0.355607
2244000000.0,0.069142,-0.339508
2251000000.0,0.083293,-0.331112
2258000000.0,0.104713,-0.324805
2265000000.0,0.125248,-0.323913
2272000000.0,0.146368,-0.331467
2279000000.0,0.162879,-0.344318
2286000000.0,0.181964,-0.366069
2293000000.0,0.194434,-0.399772
2300000000.0,0.197234,-0.437338
2307000000.0,0.19249,-0.478487
2314000000.0,0.186336,-0.520589
2321000000.0,0.174813,-0.562881
2328000000.0,0.149377,-0.600273
2335000000.0,0.117139,-0.638816
2342000000.0,0.07855,-0.675538
2349000000.0,0.036047,-0.702412
2356000000.0,-0.008811,-0.727629
2363000000.0,-0.064265,-0.739082
2370000000.0,-0.120006,-0.75049
2377000000.0,-0.171281,-0.752005
2384000000.0,-0.223512,-0.751566
2391000000.0,-0.281118,-0.750808
2398000000.0,-0.33418,-0.733639
2405000000.0,-0.400193,-0.710084
2412000000.0,-0.437584,-0.693221
2419000000.0,-0.483427,-0.667855
2426000000.0,-0.533096,-0.632097
2433000000.0,-0.562539,-0.602311
2440000000.0,-0.606059,-0.568164
2447000000.0,-0.638202,-0.535183
2454000000.0,-0.675596,-0.487936
2461000000.0,-0.693594,-0.450053
2468000000.0,-0.719592,-0.411318
2475000000.0,-0.743314,-0.359464
2482000000.0,-0.757244,-0.318898
2489000000.0,-0.772535,-0.263753
2496000000.0,-0.781383,-0.220424
2503000000.0,-0.784361,-0.180422
2510000000.0,-0.781736,-0.133817
2517000000.0,-0.778542,-0.087189
2524000000.0,-0.776041,-0.046858
2531000000.0,-0.774311,-0.004956
2538000000.0,-0.764653,0.035283
2545000000.0,-0.755881,0.07662
2552000000.0,-0.738379,0.115309
2559000000.0,-0.723589,0.153515
2566000000.0,-0.702961,0.190074
2573000000.0,-0.681983,0.22467
2580000000.0,-0.653712,0.266031
2587000000.0,-0.628625,0.291586
2594000000.0,-0.605024,0.309138
2601000000.0,-0.569624,0.332295
2608000000.0,-0.539894,0.340597
2615000000.0,-0.514003,0.352791
2622000000.0,-0.487807,0.362319
2629000000.0,-0.454375,0.371882
2636000000.0,-0.426096,0.37937
2643000000.0,-0.407363,0.383029
2650000000.0,-0.390733,0.382049
2657000000.0,-0.380851,0.379408
2664000000.0,-0.374496,0.382552
2671000000.0,-0.361281,0.383364
2678000000.0,-0.349388,0.391345
2685000000.0,-0.342192,0.399817
2692000000.0,-0.337777,0.403152
2699000000.0,-0.332967,0.410562
2706000000.0,-0.324663,0.422856
2713000000.0,-0.324865,0.437155
2720000000.0,-0.327387,0.446358
2727000000.0,-0.316778,0.458621
2734000000.0,-0.308198,0.480587
2741000000.0,-0.291437,0.497826
2748000000.0,-0.289241,0.50659
2755000000.0,-0.263492,0.528794
2762000000.0,-0.248141,0.546039
2769000000.0,-0.227458,0.560903
2776000000.0,-0.199928,0.576924
2783000000.0,-0.164365,0.593504
2790000000.0,-0.142579,0.605251
2797000000.0,-0.098118,0.619913
2804000000.0,-0.074106,0.640366
2811000000.0,-0.05006,0.640875
2818000000.0,-0.00918,0.654537
2825000000.0,0.009418,0.66013
2832000000.0,0.0515,0.653903
2839000000.0,-0.006612,0.663615
2846000000.0,0.102637,0.652586
2853000000.0,0.136482,0.649493
2860000000.0,0.15627,0.642089
2867000000.0,0.198623,0.621535
2874000000.0,0.232628,0.60881
2881000000.0,0.247174,0.593377
2888000000.0,0.274728,0.586534
2895000000.0,0.307331,0.559383
2902000000.0,0.324339,0.550911
2909000000.0,0.348385,0.531649
2916000000.0,0.374017,0.510588
2923000000.0,0.395278,0.489467
2930000000.0,0.412893,0.473971
2937000000.0,0.432982,0.451215
2944000000.0,0.448348,0.437346
2951000000.0,0.458626,0.41862
2958000000.0,0.477783,0.390972
2965000000.0,0.482612,0.379913
2972000000.0,0.496851,0.356128
2979000000.0,0.512455,0.33398
2986000000.0,0.519061,0.316366
2993000000.0,0.539562,0.275473
3000000000.0,0.542098,0.270871
