Frequency (Hz),Real Part,Imaginary Part
1600000000.0,-0.779798,0.536388
1607000000.0,-0.755701,0.568462
1614000000.0,-0.726449,0.601376
1621000000.0,-0.704006,0.639728
1628000000.0,-0.673682,0.663741
1635000000.0,-0.636093,0.692231
1642000000.0,-0.597041,0.723738
1649000000.0,-0.562294,0.74937
1656000000.0,-0.52302,0.774294
1663000000.0,-0.48505,0.797475
1670000000.0,-0.44505,0.819047
1677000000.0,-0.405859,0.839665
1684000000.0,-0.36383,0.856365
1691000000.0,-0.327903,0.871158
1698000000.0,-0.275804,0.885913
1705000000.0,-0.232353,0.902894
1712000000.0,-0.195537,0.907297
1719000000.0,-0.153423,0.913997
1726000000.0,-0.109985,0.91877
1733000000.0,-0.062949,0.923148
1740000000.0,-0.014599,0.92391
1747000000.0,0.074553,0.91377
1754000000.0,0.069387,0.914531
1761000000.0,0.111342,0.906036
1768000000.0,0.157019,0.893233
1775000000.0,0.191898,0.882002
1782000000.0,0.240027,0.869158
1789000000.0,0.280172,0.853788
1796000000.0,0.323167,0.836329
1803000000.0,0.360762,0.819493
1810000000.0,0.399721,0.796948
1817000000.0,0.438485,0.774203
1824000000.0,0.471688,0.756987
1831000000.0,0.505206,0.716881
1838000000.0,0.534705,0.695453
1845000000.0,0.56507,0.652647
1852000000.0,0.589097,0.625221
1859000000.0,0.612968,0.589394
1866000000.0,0.641103,0.560442
1873000000.0,0.66369,0.51994
1880000000.0,0.691729,0.482619
1887000000.0,0.711535,0.438952
1894000000.0,0.726322,0.397323
1901000000.0,0.74018,0.355787
1908000000.0,0.746918,0.312411
1915000000.0,0.753032,0.273354
1922000000.0,0.756003,0.225442
1929000000.0,0.758364,0.18824
1936000000.0,0.754109,0.151239
1943000000.0,0.751644,0.106249
1950000000.0,0.741716,0.07276
1957000000.0,0.735776,0.027992
1964000000.0,0.714784,-0.000756
1971000000.0,0.701715,-0.033542
1978000000.0,0.678615,-0.066805
1985000000.0,0.659355,-0.08441
1992000000.0,0.639013,-0.112616
1999000000.0,0.615852,-0.132216
2006000000.0,0.593541,-0.153629
2013000000.0,0.574237,-0.167041
2020000000.0,0.551219,-0.178357
2027000000.0,0.546194,-0.171654
2034000000.0,0.536112,-0.170969
2041000000.0,0.529395,-0.173868
2048000000.0,0.526339,-0.182306
2055000000.0,0.526078,-0.193274
2062000000.0,0.529082,-0.203195
2069000000.0,0.5347,-0.21607
2076000000.0,0.537849,-0.237071
2083000000.0,0.536808,-0.25746
2090000000.0,0.539466,-0.286456
2097000000.0,0.542598,-0.310227
2104000000.0,0.533186,-0.345896
2111000000.0,0.525629,-0.379432
2118000000.0,0.508531,-0.410647
2125000000.0,0.48945,-0.446208
2132000000.0,0.469528,-0.471791
2139000000.0,0.435476,-0.502207
2146000000.0,0.408364,-0.520506
2153000000.0,0.365245,-0.545834
2160000000.0,0.332225,-0.560005
2167000000.0,0.288973,-0.575533
2174000000.0,0.308959,-0.55824
2181000000.0,0.211518,-0.584198
2188000000.0,0.170525,-0.584433
2195000000.0,0.12999,-0.575488
2202000000.0,0.097004,-0.561599
2209000000.0,0.06647,-0.545679
2216000000.0,0.043407,-0.529659
2223000000.0,0.017569,-0.507261
2230000000.0,0.005392,-0.482937
2237000000.0,-0.009473,-0.454082
2244000000.0,0.007734,-0.433815
2251000000.0,-0.018992,-0.410304
2258000000.0,-0.010162,-0.384905
2265000000.0,0.002429,-0.365459
2272000000.0,0.019555,-0.35311
2279000000.0,0.03315,-0.342721
2286000000.0,0.055983,-0.347225
2293000000.0,0.073011,-0.360616
2300000000.0,0.09102,-0.380746
2307000000.0,0.098635,-0.409196
2314000000.0,0.108967,-0.447804
2321000000.0,0.104168,-0.483774
2328000000.0,0.09089,-0.521168
2335000000.0,0.066577,-0.565081
2342000000.0,0.037412,-0.598232
2349000000.0,-0.004642,-0.635426
2356000000.0,-0.043652,-0.652062
2363000000.0,-0.092083,-0.669825
2370000000.0,-0.142784,-0.6791
2377000000.0,-0.127688,-0.696833
2384000000.0,-0.247498,-0.673741
2391000000.0,-0.304486,-0.665818
2398000000.0,-0.347796,-0.644366
2405000000.0,-0.396767,-0.626917
2412000000.0,-0.434603,-0.616584
2419000000.0,-0.477777,-0.574089
2426000000.0,-0.521775,-0.541568
2433000000.0,-0.55628,-0.50947
2440000000.0,-0.587642,-0.477028
2447000000.0,-0.612766,-0.43913
2454000000.0,-0.641379,-0.398442
2461000000.0,-0.654331,-0.364479
2468000000.0,-0.675335,-0.319479
2475000000.0,-0.692578,-0.273302
2482000000.0,-0.699894,-0.236632
2489000000.0,-0.706162,-0.180444
2496000000.0,-0.704575,-0.138004
2503000000.0,-0.704332,-0.107474
2510000000.0,-0.69453,-0.048845
2517000000.0,-0.681767,-0.021857
2524000000.0,-0.665127,0.019494
2531000000.0,-0.652714,0.049208
2538000000.0,-0.630255,0.079035
2545000000.0,-0.608316,0.115456
2552000000.0,-0.587249,0.138026
2559000000.0,-0.56136,0.16045
2566000000.0,-0.539807,0.175402
2573000000.0,-0.510307,0.193011
2580000000.0,-0.492911,0.199327
2587000000.0,-0.472813,0.205119
2594000000.0,-0.459441,0.200419
2601000000.0,-0.442946,0.206864
2608000000.0,-0.433053,0.206775
2615000000.0,-0.427888,0.209814
2622000000.0,-0.418264,0.214605
2629000000.0,-0.416741,0.215093
2636000000.0,-0.408538,0.224723
2643000000.0,-0.410107,0.229346
2650000000.0,-0.411188,0.237787
2657000000.0,-0.42342,0.233055
2664000000.0,-0.415349,0.258838
2671000000.0,-0.417543,0.267428
2678000000.0,-0.419106,0.288154
2685000000.0,-0.413596,0.306297
2692000000.0,-0.414708,0.323857
2699000000.0,-0.411281,0.344521
2706000000.0,-0.418653,0.357222
2713000000.0,-0.405022,0.387345
2720000000.0,-0.39948,0.410129
2727000000.0,-0.395034,0.432215
2734000000.0,-0.384071,0.45923
2741000000.0,-0.386482,0.471845
2748000000.0,-0.354692,0.501211
2755000000.0,-0.337846,0.52043
2762000000.0,-0.308051,0.548134
2769000000.0,-0.285447,0.564407
2776000000.0,-0.268947,0.581085
2783000000.0,-0.216764,0.604867
2790000000.0,-0.176479,0.623343
2797000000.0,-0.145235,0.635454
2804000000.0,-0.112217,0.653514
2811000000.0,-0.113118,0.656922
2818000000.0,-0.041271,0.670098
2825000000.0,-0.007881,0.673735
2832000000.0,0.022592,0.67287
2839000000.0,0.046959,0.668569
2846000000.0,0.080204,0.670437
2853000000.0,0.111394,0.657685
2860000000.0,0.13619,0.652521
2867000000.0,0.181353,0.635129
2874000000.0,0.212908,0.614095
2881000000.0,0.233786,0.600455
2888000000.0,0.261864,0.592965
2895000000.0,0.29872,0.574528
2902000000.0,0.313066,0.559154
2909000000.0,0.334746,0.54366
2916000000.0,0.352586,0.525078
2923000000.0,0.381933,0.501556
2930000000.0,0.394668,0.488152
2937000000.0,0.419076,0.462967
2944000000.0,0.432463,0.44882
2951000000.0,0.448154,0.426763
2958000000.0,0.459588,0.409156
2965000000.0,0.472205,0.387876
2972000000.0,0.493898,0.359487
2979000000.0,0.499951,0.346373
2986000000.0,0.513682,0.328228
2993000000.0,0.527594,0.293372
3000000000.0,0.540231,0.269338
