Frequency (Hz),Real Part,Imaginary Part
1600000000.0,-0.775692,0.534158
1607000000.0,-0.757798,0.560657
1614000000.0,-0.730224,0.597202
1621000000.0,-0.699366,0.630495
1628000000.0,-0.66487,0.664719
1635000000.0,-0.638615,0.688579
1642000000.0,-0.595667,0.721897
1649000000.0,-0.562843,0.747315
1656000000.0,-0.515787,0.775546
1663000000.0,-0.48552,0.797878
1670000000.0,-0.453352,0.813037
1677000000.0,-0.40901,0.835186
1684000000.0,-0.364809,0.851781
1691000000.0,-0.334817,0.868424
1698000000.0,-0.283608,0.883625
1705000000.0,-0.238648,0.892959
1712000000.0,-0.195326,0.905275
1719000000.0,-0.152282,0.91281
1726000000.0,-0.113773,0.917245
1733000000.0,-0.068797,0.922363
1740000000.0,-0.019016,0.91975
1747000000.0,0.022086,0.916575
1754000000.0,0.060817,0.913509
1761000000.0,0.106951,0.90444
1768000000.0,0.145311,0.893843
1775000000.0,0.197387,0.881432
1782000000.0,0.230716,0.87301
1789000000.0,0.277301,0.850128
1796000000.0,0.320209,0.832946
1803000000.0,0.356966,0.817288
1810000000.0,0.304375,0.842379
1817000000.0,0.43208,0.774891
1824000000.0,0.464949,0.754681
1831000000.0,0.504599,0.716133
1838000000.0,0.53887,0.689822
1845000000.0,0.567398,0.654955
1852000000.0,0.587242,0.625359
1859000000.0,0.608613,0.592021
1866000000.0,0.687949,0.478072
1873000000.0,0.669205,0.508769
1880000000.0,0.692758,0.471756
1887000000.0,0.705901,0.430579
1894000000.0,0.722052,0.388232
1901000000.0,0.734374,0.346925
1908000000.0,0.742002,0.296072
1915000000.0,0.744567,0.255917
1922000000.0,0.742937,0.217713
1929000000.0,0.744014,0.172217
1936000000.0,0.73439,0.135381
1943000000.0,0.726726,0.09195
1950000000.0,0.71382,0.056676
1957000000.0,0.696016,0.020822
1964000000.0,0.678721,-0.005347
1971000000.0,0.653275,-0.034851
1978000000.0,0.632904,-0.059921
1985000000.0,0.611403,-0.074111
1992000000.0,0.592127,-0.086651
1999000000.0,0.575089,-0.093688
2006000000.0,0.560515,-0.100906
2013000000.0,0.549354,-0.107611
2020000000.0,0.543951,-0.097762
2027000000.0,0.539551,-0.108644
2034000000.0,0.539567,-0.116391
2041000000.0,0.54626,-0.121141
2048000000.0,0.554223,-0.129279
2055000000.0,0.560452,-0.14895
2062000000.0,0.570402,-0.16966
2069000000.0,0.57748,-0.195004
2076000000.0,0.584533,-0.217419
2083000000.0,0.579777,-0.260009
2090000000.0,0.58145,-0.291835
2097000000.0,0.574496,-0.328227
2104000000.0,0.559491,-0.366483
2111000000.0,0.53986,-0.40236
2118000000.0,0.520446,-0.434446
2125000000.0,0.486207,-0.473536
2132000000.0,0.460636,-0.495241
2139000000.0,0.415595,-0.521553
2146000000.0,0.368112,-0.53926
2153000000.0,0.332547,-0.54665
2160000000.0,0.281388,-0.554388
2167000000.0,0.237151,-0.552572
2174000000.0,0.201206,-0.54566
2181000000.0,0.161768,-0.535109
2188000000.0,0.124552,-0.518064
2195000000.0,0.096819,-0.497075
2202000000.0,0.085411,-0.471657
2209000000.0,0.067617,-0.44776
2216000000.0,0.063426,-0.426907
2223000000.0,0.058813,-0.404623
2230000000.0,0.064051,-0.3866
2237000000.0,0.071372,-0.371381
2244000000.0,0.083237,-0.361616
2251000000.0,0.09104,-0.356762
2258000000.0,0.107017,-0.350553
2265000000.0,0.118616,-0.347772
2272000000.0,0.131721,-0.351454
2279000000.0,0.1487,-0.359324
2286000000.0,0.159759,-0.37776
2293000000.0,0.172081,-0.40531
2300000000.0,0.176992,-0.436994
2307000000.0,0.177406,-0.47418
2314000000.0,0.175562,-0.515833
2321000000.0,0.160821,-0.555798
2328000000.0,0.136925,-0.588985
2335000000.0,0.117484,-0.632944
2342000000.0,0.066073,-0.665677
2349000000.0,0.031512,-0.693311
2356000000.0,-0.020438,-0.713098
2363000000.0,-0.067869,-0.732565
2370000000.0,-0.122256,-0.737982
2377000000.0,-0.17918,-0.736833
2384000000.0,-0.226489,-0.746083
2391000000.0,-0.286896,-0.725596
2398000000.0,-0.339542,-0.715792
2405000000.0,-0.385687,-0.701686
2412000000.0,-0.441289,-0.683442
2419000000.0,-0.482956,-0.656169
2426000000.0,-0.528538,-0.622445
2433000000.0,-0.566234,-0.593292
2440000000.0,-0.602733,-0.56106
2447000000.0,-0.637221,-0.519385
2454000000.0,-0.675198,-0.473989
2461000000.0,-0.697591,-0.436153
2468000000.0,-0.717932,-0.396109
2475000000.0,-0.741795,-0.340685
2482000000.0,-0.75414,-0.296716
2489000000.0,-0.765422,-0.258994
2496000000.0,-0.772769,-0.210747
2503000000.0,-0.772495,-0.162124
2510000000.0,-0.772695,-0.121459
2517000000.0,-0.767049,-0.068424
2524000000.0,-0.765768,-0.030514
2531000000.0,-0.758863,0.016075
2538000000.0,-0.744829,0.0573
2545000000.0,-0.733584,0.094779
2552000000.0,-0.711417,0.137592
2559000000.0,-0.690334,0.173776
2566000000.0,-0.669505,0.206583
2573000000.0,-0.643003,0.238275
2580000000.0,-0.608593,0.258944
2587000000.0,-0.582813,0.283649
2594000000.0,-0.555496,0.298517
2601000000.0,-0.530486,0.30517
2608000000.0,-0.500298,0.320588
2615000000.0,-0.473072,0.320419
2622000000.0,-0.450868,0.322161
2629000000.0,-0.428664,0.32504
2636000000.0,-0.414432,0.324864
2643000000.0,-0.396871,0.331293
2650000000.0,-0.391069,0.337251
2657000000.0,-0.383843,0.335611
2664000000.0,-0.380222,0.342129
2671000000.0,-0.370899,0.344295
2678000000.0,-0.369734,0.35524
2685000000.0,-0.36014,0.36561
2692000000.0,-0.356287,0.376598
2699000000.0,-0.355164,0.385131
2706000000.0,-0.351125,0.404703
2713000000.0,-0.351533,0.412324
2720000000.0,-0.349279,0.42826
2727000000.0,-0.346348,0.446066
2734000000.0,-0.33396,0.46521
2741000000.0,-0.320735,0.484818
2748000000.0,-0.314223,0.502611
2755000000.0,-0.299301,0.523938
2762000000.0,-0.275438,0.541375
2769000000.0,-0.249598,0.564679
2776000000.0,-0.220824,0.584487
2783000000.0,-0.183459,0.598774
2790000000.0,-0.152892,0.617614
2797000000.0,-0.124155,0.632369
2804000000.0,-0.086393,0.644705
2811000000.0,-0.061188,0.655015
2818000000.0,-0.025688,0.665886
2825000000.0,-0.011871,0.674084
2832000000.0,0.036866,0.669094
2839000000.0,0.060688,0.6656
2846000000.0,0.091711,0.66705
2853000000.0,0.114035,0.656841
2860000000.0,0.15698,0.642642
2867000000.0,0.176452,0.634465
2874000000.0,0.219814,0.618204
2881000000.0,0.218158,0.617196
2888000000.0,0.278208,0.583354
2895000000.0,0.298577,0.573498
2902000000.0,0.31711,0.560661
2909000000.0,0.339261,0.546844
2916000000.0,0.365628,0.520986
2923000000.0,0.384496,0.506195
2930000000.0,0.406832,0.483346
2937000000.0,0.428153,0.463154
2944000000.0,0.444915,0.445762
2951000000.0,0.464349,0.419793
2958000000.0,0.471722,0.405736
2965000000.0,0.485784,0.388127
2972000000.0,0.499905,0.364074
2979000000.0,0.513374,0.338088
2986000000.0,0.524556,0.313559
2993000000.0,0.537488,0.291211
3000000000.0,0.544177,0.272236
