Frequency (Hz),Real Part,Imaginary Part
1600000000.0,-0.779402,0.534361
1607000000.0,-0.752197,0.570927
1614000000.0,-0.723658,0.604315
1621000000.0,-0.702493,0.635418
1628000000.0,-0.665907,0.665447
1635000000.0,-0.627564,0.700957
1642000000.0,-0.590779,0.729064
1649000000.0,-0.555014,0.74649
1656000000.0,-0.51123,0.780024
1663000000.0,-0.494904,0.794474
1670000000.0,-0.446196,0.817946
1677000000.0,-0.416092,0.833208
1684000000.0,-0.349751,0.860113
1691000000.0,-0.333076,0.867325
1698000000.0,-0.2849,0.883092
1705000000.0,-0.244465,0.892119
1712000000.0,-0.202187,0.904927
1719000000.0,-0.154489,0.911942
1726000000.0,-0.111024,0.917824
1733000000.0,-0.077022,0.921004
1740000000.0,-0.036613,0.915295
1747000000.0,0.018349,0.915113
1754000000.0,0.061324,0.907278
1761000000.0,0.113843,0.89882
1768000000.0,0.169955,0.886164
1775000000.0,0.199146,0.871211
1782000000.0,0.255785,0.855731
1789000000.0,0.287489,0.845798
1796000000.0,0.332792,0.821066
1803000000.0,0.372611,0.801502
1810000000.0,0.407589,0.780326
1817000000.0,0.450747,0.749187
1824000000.0,0.481157,0.733438
1831000000.0,0.515511,0.698096
1838000000.0,0.546057,0.6637
1845000000.0,0.574836,0.632933
1852000000.0,0.58844,0.59653
1859000000.0,0.617984,0.549554
1866000000.0,0.64197,0.521227
1873000000.0,0.658128,0.479493
1880000000.0,0.677772,0.431546
1887000000.0,0.695436,0.387357
1894000000.0,0.702661,0.344291
1901000000.0,0.708244,0.300524
1908000000.0,0.706606,0.256868
1915000000.0,0.700136,0.217965
1922000000.0,0.691046,0.180296
1929000000.0,0.680178,0.138626
1936000000.0,0.667768,0.109157
1943000000.0,0.651104,0.081072
1950000000.0,0.633708,0.062412
1957000000.0,0.617279,0.031765
1964000000.0,0.594722,0.027904
1971000000.0,0.578373,0.010831
1978000000.0,0.566619,0.009548
1985000000.0,0.557243,0.004385
1992000000.0,0.54783,-0.046789
1999000000.0,0.552246,-0.010425
2006000000.0,0.556004,-0.010336
2013000000.0,0.564299,-0.011435
2020000000.0,0.573046,-0.022182
2027000000.0,0.583225,-0.034463
2034000000.0,0.5963,-0.047678
2041000000.0,0.610878,-0.067458
2048000000.0,0.621468,-0.09277
2055000000.0,0.630098,-0.125513
2062000000.0,0.638016,-0.158988
2069000000.0,0.648174,-0.184637
2076000000.0,0.640407,-0.240929
2083000000.0,0.634009,-0.281883
2090000000.0,0.624744,-0.32734
2097000000.0,0.606818,-0.369315
2104000000.0,0.585741,-0.405146
2111000000.0,0.559121,-0.447415
2118000000.0,0.524681,-0.480534
2125000000.0,0.484291,-0.510884
2132000000.0,0.447137,-0.53471
2139000000.0,0.400982,-0.550992
2146000000.0,0.353857,-0.561352
2153000000.0,0.304966,-0.569068
2160000000.0,0.260134,-0.56518
2167000000.0,0.217233,-0.559003
2174000000.0,0.1669,-0.552009
2181000000.0,0.130123,-0.527334
2188000000.0,0.100667,-0.506083
2195000000.0,0.076979,-0.477595
2202000000.0,0.059744,-0.446931
2209000000.0,0.056113,-0.417065
2216000000.0,0.055474,-0.392282
2223000000.0,0.060416,-0.366862
2230000000.0,0.071481,-0.3438
2237000000.0,0.084973,-0.327848
2244000000.0,0.108038,-0.317134
2251000000.0,0.126896,-0.314377
2258000000.0,0.153234,-0.313199
2265000000.0,0.173749,-0.320682
2272000000.0,0.197405,-0.335812
2279000000.0,0.210345,-0.358983
2286000000.0,0.226701,-0.392172
2293000000.0,0.238668,-0.428332
2300000000.0,0.230977,-0.477251
2307000000.0,0.222776,-0.523487
2314000000.0,0.205722,-0.566652
2321000000.0,0.177851,-0.612247
2328000000.0,0.111829,-0.648247
2335000000.0,0.113755,-0.68463
2342000000.0,0.06074,-0.712869
2349000000.0,0.016939,-0.739081
2356000000.0,-0.039852,-0.750992
2363000000.0,-0.086822,-0.764433
2370000000.0,-0.141583,-0.763408
2377000000.0,-0.190037,-0.768438
2384000000.0,-0.237417,-0.77096
2391000000.0,-0.306093,-0.749592
2398000000.0,-0.354957,-0.738008
2405000000.0,-0.400141,-0.721596
2412000000.0,-0.448002,-0.70328
2419000000.0,-0.505581,-0.667334
2426000000.0,-0.54335,-0.632316
2433000000.0,-0.580409,-0.603301
2440000000.0,-0.601436,-0.593236
2447000000.0,-0.678779,-0.491003
2454000000.0,-0.679167,-0.489239
2461000000.0,-0.702671,-0.45377
2468000000.0,-0.729866,-0.40956
2475000000.0,-0.748477,-0.363636
2482000000.0,-0.769275,-0.316757
2489000000.0,-0.7801,-0.266886
2496000000.0,-0.786727,-0.227558
2503000000.0,-0.795264,-0.184442
2510000000.0,-0.792273,-0.138165
2517000000.0,-0.797865,-0.095226
2524000000.0,-0.791186,-0.050209
2531000000.0,-0.7864,-0.022721
2538000000.0,-0.78068,0.025705
2545000000.0,-0.768135,0.07559
2552000000.0,-0.75905,0.117962
2559000000.0,-0.744008,0.154685
2566000000.0,-0.72676,0.196679
2573000000.0,-0.702633,0.234078
2580000000.0,-0.68279,0.263736
2587000000.0,-0.649101,0.30394
2594000000.0,-0.625029,0.323934
2601000000.0,-0.598354,0.340307
2608000000.0,-0.561826,0.371309
2615000000.0,-0.531436,0.381726
2622000000.0,-0.496977,0.395971
2629000000.0,-0.461015,0.401592
2636000000.0,-0.429522,0.411655
2643000000.0,-0.406415,0.412746
2650000000.0,-0.390014,0.413593
2657000000.0,-0.357412,0.413173
2664000000.0,-0.356367,0.411239
2671000000.0,-0.345166,0.405327
2678000000.0,-0.335915,0.40527
2685000000.0,-0.322639,0.410596
2692000000.0,-0.317482,0.415324
2699000000.0,-0.311096,0.419891
2706000000.0,-0.313302,0.422518
2713000000.0,-0.302274,0.437883
2720000000.0,-0.306814,0.443062
2727000000.0,-0.307941,0.4514
2734000000.0,-0.318705,0.462169
2741000000.0,-0.288041,0.485127
2748000000.0,-0.274471,0.502068
2755000000.0,-0.267646,0.519937
2762000000.0,-0.243839,0.535976
2769000000.0,-0.231832,0.554651
2776000000.0,-0.201653,0.571967
2783000000.0,-0.161498,0.59203
2790000000.0,-0.133479,0.605034
2797000000.0,-0.107735,0.619693
2804000000.0,-0.075856,0.632066
2811000000.0,-0.050287,0.646312
2818000000.0,-0.023604,0.653734
2825000000.0,0.019564,0.65867
2832000000.0,0.041646,0.662682
2839000000.0,0.075555,0.666567
2846000000.0,0.104772,0.653976
2853000000.0,0.136888,0.649413
2860000000.0,0.170002,0.641163
2867000000.0,0.201993,0.626597
2874000000.0,0.231126,0.611523
2881000000.0,0.283144,0.581402
2888000000.0,0.287581,0.581231
2895000000.0,0.30566,0.565801
2902000000.0,0.333938,0.549921
2909000000.0,0.34893,0.537416
2916000000.0,0.381169,0.507662
2923000000.0,0.390006,0.495235
2930000000.0,0.414569,0.476276
2937000000.0,0.432438,0.45627
2944000000.0,0.449532,0.439359
2951000000.0,0.466327,0.413048
2958000000.0,0.475062,0.402653
2965000000.0,0.488787,0.378964
2972000000.0,0.501915,0.358072
2979000000.0,0.513122,0.335617
2986000000.0,0.534238,0.308152
2993000000.0,0.53617,0.288201
3000000000.0,0.551244,0.257839
