Frequency (Hz),Real Part,Imaginary Part
1600000000.0,-0.789006,0.523221
1607000000.0,-0.762944,0.563906
1614000000.0,-0.736142,0.597133
1621000000.0,-0.707885,0.633095
1628000000.0,-0.674667,0.66457
1635000000.0,-0.642479,0.691502
1642000000.0,-0.604834,0.721103
1649000000.0,-0.561213,0.751566
1656000000.0,-0.527056,0.771804
1663000000.0,-0.494975,0.794542
1670000000.0,-0.451865,0.815291
1677000000.0,-0.415842,0.835755
1684000000.0,-0.37059,0.856086
1691000000.0,-0.331779,0.871748
1698000000.0,-0.290249,0.886882
1705000000.0,-0.244451,0.897667
1712000000.0,-0.201273,0.90883
1719000000.0,-0.156333,0.916327
1726000000.0,-0.113396,0.921103
1733000000.0,-0.076133,0.92341
1740000000.0,-0.032668,0.926418
1747000000.0,0.04351,0.918251
1754000000.0,0.054103,0.919095
1761000000.0,0.104435,0.909571
1768000000.0,0.151622,0.899612
1775000000.0,0.178047,0.889967
1782000000.0,0.229023,0.877582
1789000000.0,0.26329,0.866167
1796000000.0,0.297998,0.848106
1803000000.0,0.345736,0.828702
1810000000.0,0.378429,0.814525
1817000000.0,0.42221,0.788159
1824000000.0,0.4535,0.771407
1831000000.0,0.491061,0.742354
1838000000.0,0.514284,0.723511
1845000000.0,0.54724,0.680857
1852000000.0,0.578078,0.658589
1859000000.0,0.600893,0.625741
1866000000.0,0.634536,0.595394
1873000000.0,0.659687,0.563486
1880000000.0,0.691484,0.516268
1887000000.0,0.711147,0.482823
1894000000.0,0.734903,0.441777
1901000000.0,0.75492,0.407451
1908000000.0,0.767252,0.357048
1915000000.0,0.776274,0.323172
1922000000.0,0.782485,0.278112
1929000000.0,0.792041,0.239198
1936000000.0,0.802407,0.19508
1943000000.0,0.802154,0.150364
1950000000.0,0.803161,0.113304
1957000000.0,0.800488,0.064867
1964000000.0,0.793524,0.028756
1971000000.0,0.780954,-0.025866
1978000000.0,0.767798,-0.05892
1985000000.0,0.752243,-0.098355
1992000000.0,0.736067,-0.137422
1999000000.0,0.71151,-0.172888
2006000000.0,0.687818,-0.202824
2013000000.0,0.665858,-0.224425
2020000000.0,0.6375,-0.25532
2027000000.0,0.610284,-0.272956
2034000000.0,0.58454,-0.285852
2041000000.0,0.560937,-0.293185
2048000000.0,0.537532,-0.306995
2055000000.0,0.518926,-0.315313
2062000000.0,0.50076,-0.321048
2069000000.0,0.488779,-0.32235
2076000000.0,0.471898,-0.334975
2083000000.0,0.456408,-0.345626
2090000000.0,0.448772,-0.350584
2097000000.0,0.443949,-0.356825
2104000000.0,0.44208,-0.365806
2111000000.0,0.437219,-0.381928
2118000000.0,0.426668,-0.399516
2125000000.0,0.421142,-0.421587
2132000000.0,0.412837,-0.44712
2139000000.0,0.396872,-0.465204
2146000000.0,0.37895,-0.48996
2153000000.0,0.361253,-0.512404
2160000000.0,0.329572,-0.535743
2167000000.0,0.299396,-0.555696
2174000000.0,0.262963,-0.579138
2181000000.0,0.216007,-0.594881
2188000000.0,0.175134,-0.603571
2195000000.0,0.135161,-0.602578
2202000000.0,0.09986,-0.597633
2209000000.0,0.060086,-0.588752
2216000000.0,0.024091,-0.574473
2223000000.0,-0.013972,-0.557279
2230000000.0,-0.040822,-0.532863
2237000000.0,-0.063279,-0.511465
2244000000.0,-0.078586,-0.484331
2251000000.0,-0.095732,-0.459344
2258000000.0,-0.10357,-0.429755
2265000000.0,-0.105916,-0.401728
2272000000.0,-0.104657,-0.375724
2279000000.0,-0.103865,-0.349434
2286000000.0,-0.097482,-0.329868
2293000000.0,-0.091718,-0.315373
2300000000.0,-0.079348,-0.302468
2307000000.0,-0.064832,-0.293875
2314000000.0,-0.044124,-0.292689
2321000000.0,-0.025152,-0.293408
2328000000.0,-0.004525,-0.300172
2335000000.0,0.014704,-0.317232
2342000000.0,0.032943,-0.340294
2349000000.0,0.043742,-0.369525
2356000000.0,0.046318,-0.403668
2363000000.0,0.047919,-0.440828
2370000000.0,0.036085,-0.480615
2377000000.0,0.008447,-0.521856
2384000000.0,-0.025115,-0.558096
2391000000.0,-0.069749,-0.587602
2398000000.0,-0.127943,-0.608095
2405000000.0,-0.167418,-0.630433
2412000000.0,-0.220331,-0.641792
2419000000.0,-0.282519,-0.637408
2426000000.0,-0.333039,-0.62961
2433000000.0,-0.390329,-0.613812
2440000000.0,-0.437062,-0.602004
2447000000.0,-0.492853,-0.570635
2454000000.0,-0.527965,-0.545744
2461000000.0,-0.576624,-0.503503
2468000000.0,-0.61041,-0.46817
2475000000.0,-0.641003,-0.430304
2482000000.0,-0.670923,-0.383139
2489000000.0,-0.690352,-0.337826
2496000000.0,-0.710884,-0.291093
2503000000.0,-0.707308,-0.304095
2510000000.0,-0.735924,-0.201736
2517000000.0,-0.73683,-0.149465
2524000000.0,-0.739791,-0.114194
2531000000.0,-0.74001,-0.056493
2538000000.0,-0.734277,-0.026182
2545000000.0,-0.727274,0.02928
2552000000.0,-0.714158,0.065871
2559000000.0,-0.701092,0.106918
2566000000.0,-0.681982,0.154543
2573000000.0,-0.660044,0.177671
2580000000.0,-0.63463,0.220881
2587000000.0,-0.612194,0.24249
2594000000.0,-0.58,0.274185
2601000000.0,-0.555312,0.284827
2608000000.0,-0.5241,0.300344
2615000000.0,-0.497432,0.309591
2622000000.0,-0.47006,0.321696
2629000000.0,-0.443827,0.336041
2636000000.0,-0.416937,0.331269
2643000000.0,-0.395961,0.336872
2650000000.0,-0.385168,0.33655
2657000000.0,-0.376136,0.335306
2664000000.0,-0.371702,0.337494
2671000000.0,-0.360368,0.337853
2678000000.0,-0.35272,0.344284
2685000000.0,-0.343655,0.350223
2692000000.0,-0.343969,0.355126
2699000000.0,-0.339039,0.366426
2706000000.0,-0.332613,0.377653
2713000000.0,-0.334756,0.390002
2720000000.0,-0.329611,0.403998
2727000000.0,-0.330535,0.41657
2734000000.0,-0.327218,0.424997
2741000000.0,-0.318115,0.452747
2748000000.0,-0.307252,0.463128
2755000000.0,-0.298843,0.483646
2762000000.0,-0.282871,0.498367
2769000000.0,-0.260218,0.517755
2776000000.0,-0.231144,0.541756
2783000000.0,-0.207574,0.554456
2790000000.0,-0.16814,0.576844
2797000000.0,-0.138384,0.597322
2804000000.0,-0.122903,0.608054
2811000000.0,-0.083424,0.621859
2818000000.0,-0.070552,0.639191
2825000000.0,-0.024762,0.645031
2832000000.0,0.00485,0.649371
2839000000.0,0.062304,0.641021
2846000000.0,0.05716,0.65049
2853000000.0,0.094093,0.643776
2860000000.0,0.127747,0.63434
2867000000.0,0.156211,0.624511
2874000000.0,0.190853,0.610363
2881000000.0,0.224571,0.595867
2888000000.0,0.248145,0.589643
2895000000.0,0.277101,0.569327
2902000000.0,0.290518,0.559187
2909000000.0,0.325506,0.537897
2916000000.0,0.339679,0.52239
2923000000.0,0.369121,0.502646
2930000000.0,0.375629,0.492054
2937000000.0,0.400358,0.46855
2944000000.0,0.420872,0.449592
2951000000.0,0.43772,0.424422
2958000000.0,0.450182,0.40517
2965000000.0,0.463405,0.390526
2972000000.0,0.481316,0.362446
2979000000.0,0.494031,0.340817
2986000000.0,0.502155,0.321171
2993000000.0,0.518829,0.294913
3000000000.0,0.527377,0.272186
