Frequency (Hz),Real Part,Imaginary Part
1600000000.0,-0.780991,0.529702
1607000000.0,-0.756662,0.564341
1614000000.0,-0.732155,0.59667
1621000000.0,-0.707367,0.632405
1628000000.0,-0.672805,0.660129
1635000000.0,-0.636864,0.691093
1642000000.0,-0.599967,0.7217
1649000000.0,-0.558189,0.75091
1656000000.0,-0.492741,0.787371
1663000000.0,-0.486398,0.797594
1670000000.0,-0.449436,0.816689
1677000000.0,-0.409991,0.836736
1684000000.0,-0.367518,0.855856
1691000000.0,-0.324251,0.869753
1698000000.0,-0.281243,0.882797
1705000000.0,-0.238643,0.895908
1712000000.0,-0.188826,0.908408
1719000000.0,-0.101891,0.912995
1726000000.0,-0.10466,0.921937
1733000000.0,-0.069477,0.92138
1740000000.0,-0.054056,0.922241
1747000000.0,0.017704,0.916954
1754000000.0,0.08527,0.910164
1761000000.0,0.106946,0.904278
1768000000.0,0.1544,0.894014
1775000000.0,0.198001,0.879149
1782000000.0,0.210954,0.879927
1789000000.0,0.274316,0.8548
1796000000.0,0.319578,0.832781
1803000000.0,0.358665,0.813374
1810000000.0,0.398286,0.79071
1817000000.0,0.43249,0.768586
1824000000.0,0.469751,0.745405
1831000000.0,0.505702,0.714242
1838000000.0,0.534699,0.681038
1845000000.0,0.565353,0.649947
1852000000.0,0.587264,0.617857
1859000000.0,0.615799,0.576376
1866000000.0,0.638511,0.547795
1873000000.0,0.659134,0.505039
1880000000.0,0.682205,0.457624
1887000000.0,0.701377,0.413408
1894000000.0,0.715055,0.370186
1901000000.0,0.726351,0.330272
1908000000.0,0.726732,0.282024
1915000000.0,0.729969,0.238576
1922000000.0,0.723588,0.19782
1929000000.0,0.717083,0.162139
1936000000.0,0.704751,0.123875
1943000000.0,0.694471,0.0863
1950000000.0,0.679936,0.050583
1957000000.0,0.658726,0.022135
1964000000.0,0.635755,0.000658
1971000000.0,0.615192,-0.017634
1978000000.0,0.594863,-0.029823
1985000000.0,0.575656,-0.040871
1992000000.0,0.562575,-0.046759
1999000000.0,0.549955,-0.052001
2006000000.0,0.537669,-0.081205
2013000000.0,0.543469,-0.054466
2020000000.0,0.543069,-0.056337
2027000000.0,0.550005,-0.059054
2034000000.0,0.557449,-0.064945
2041000000.0,0.571683,-0.076024
2048000000.0,0.584401,-0.091512
2055000000.0,0.598306,-0.117711
2062000000.0,0.609772,-0.144284
2069000000.0,0.620928,-0.171393
2076000000.0,0.621291,-0.213655
2083000000.0,0.623777,-0.250055
2090000000.0,0.616887,-0.292538
2097000000.0,0.609055,-0.333518
2104000000.0,0.594573,-0.371389
2111000000.0,0.569912,-0.41555
2118000000.0,0.546117,-0.451403
2125000000.0,0.515321,-0.488885
2132000000.0,0.482282,-0.515422
2139000000.0,0.431666,-0.542712
2146000000.0,0.387751,-0.564919
2153000000.0,0.346439,-0.574304
2160000000.0,0.310387,-0.578418
2167000000.0,0.254822,-0.585837
2174000000.0,0.210529,-0.582253
2181000000.0,0.166601,-0.571988
2188000000.0,0.125612,-0.561713
2195000000.0,0.097116,-0.537419
2202000000.0,0.064489,-0.514771
2209000000.0,0.043056,-0.487245
2216000000.0,0.030153,-0.461104
2223000000.0,0.022692,-0.432153
2230000000.0,0.021646,-0.403295
2237000000.0,0.024281,-0.377124
2244000000.0,0.061234,-0.354546
2251000000.0,0.045263,-0.339104
2258000000.0,0.071011,-0.322002
2265000000.0,0.090111,-0.313866
2272000000.0,0.115368,-0.313018
2279000000.0,0.140404,-0.319615
2286000000.0,0.16113,-0.338305
2293000000.0,0.178878,-0.366158
2300000000.0,0.1892,-0.403027
2307000000.0,0.193758,-0.445227
2314000000.0,0.194982,-0.491297
2321000000.0,0.149576,-0.541111
2328000000.0,0.170622,-0.575259
2335000000.0,0.128806,-0.626053
2342000000.0,0.104738,-0.661224
2349000000.0,0.060219,-0.69209
2356000000.0,0.013883,-0.717142
2363000000.0,-0.038722,-0.739237
2370000000.0,-0.101853,-0.747899
2377000000.0,-0.15251,-0.751673
2384000000.0,-0.212178,-0.75345
2391000000.0,-0.26072,-0.749886
2398000000.0,-0.317361,-0.736445
2405000000.0,-0.369352,-0.722036
2412000000.0,-0.429169,-0.703028
2419000000.0,-0.46443,-0.674237
2426000000.0,-0.514405,-0.64889
2433000000.0,-0.55844,-0.611076
2440000000.0,-0.597102,-0.580582
2447000000.0,-0.627495,-0.550999
2454000000.0,-0.658424,-0.517124
2461000000.0,-0.685767,-0.468763
2468000000.0,-0.715913,-0.430565
2475000000.0,-0.737547,-0.3842
2482000000.0,-0.753293,-0.341857
2489000000.0,-0.769588,-0.294046
2496000000.0,-0.781958,-0.252011
2503000000.0,-0.785602,-0.207243
2510000000.0,-0.788923,-0.165346
2517000000.0,-0.795917,-0.122111
2524000000.0,-0.790555,-0.074345
2531000000.0,-0.78572,-0.034577
2538000000.0,-0.78326,0.016185
2545000000.0,-0.775185,0.056722
2552000000.0,-0.763111,0.094379
2559000000.0,-0.749115,0.144727
2566000000.0,-0.73511,0.173131
2573000000.0,-0.715894,0.216691
2580000000.0,-0.68906,0.245265
2587000000.0,-0.662092,0.284782
2594000000.0,-0.639628,0.315131
2601000000.0,-0.611943,0.33193
2608000000.0,-0.580163,0.361511
2615000000.0,-0.541953,0.378099
2622000000.0,-0.50908,0.391796
2629000000.0,-0.481145,0.402573
2636000000.0,-0.445177,0.40992
2643000000.0,-0.417915,0.412665
2650000000.0,-0.396199,0.42195
2657000000.0,-0.378894,0.418247
2664000000.0,-0.360584,0.421196
2671000000.0,-0.343101,0.41493
2678000000.0,-0.332883,0.412951
2685000000.0,-0.326567,0.410686
2692000000.0,-0.309494,0.415333
2699000000.0,-0.306931,0.423703
2706000000.0,-0.301502,0.42926
2713000000.0,-0.307249,0.436851
2720000000.0,-0.30343,0.441932
2727000000.0,-0.298909,0.453908
2734000000.0,-0.288942,0.467839
2741000000.0,-0.282713,0.482535
2748000000.0,-0.264059,0.500079
2755000000.0,-0.258997,0.512115
2762000000.0,-0.245923,0.527548
2769000000.0,-0.219757,0.545892
2776000000.0,-0.191858,0.56389
2783000000.0,-0.167522,0.580936
2790000000.0,-0.138289,0.593253
2797000000.0,-0.10632,0.611653
2804000000.0,-0.074112,0.627438
2811000000.0,-0.047984,0.633767
2818000000.0,-0.020477,0.641551
2825000000.0,0.005958,0.644522
2832000000.0,0.036008,0.650951
2839000000.0,0.062636,0.654885
2846000000.0,0.090401,0.646612
2853000000.0,0.120181,0.64408
2860000000.0,0.155483,0.629835
2867000000.0,0.189016,0.620058
2874000000.0,0.209269,0.614802
2881000000.0,0.213038,0.599945
2888000000.0,0.286896,0.570991
2895000000.0,0.29421,0.560301
2902000000.0,0.326966,0.540647
2909000000.0,0.337219,0.537712
2916000000.0,0.358145,0.514997
2923000000.0,0.388186,0.494602
2930000000.0,0.410886,0.466947
2937000000.0,0.425175,0.452649
2944000000.0,0.43417,0.444567
2951000000.0,0.453615,0.415909
2958000000.0,0.476068,0.388603
2965000000.0,0.475827,0.386326
2972000000.0,0.498561,0.35305
2979000000.0,0.505804,0.338514
2986000000.0,0.523743,0.310532
2993000000.0,0.522153,0.304017
3000000000.0,0.54248,0.263822
