Frequency (Hz),Real Part,Imaginary Part
1600000000.0,-0.777824,0.530485
1607000000.0,-0.756964,0.563283
1614000000.0,-0.734277,0.596825
1621000000.0,-0.697788,0.631678
1628000000.0,-0.669804,0.664888
1635000000.0,-0.622921,0.701246
1642000000.0,-0.648247,0.686764
1649000000.0,-0.560386,0.750141
1656000000.0,-0.517019,0.774486
1663000000.0,-0.48733,0.797539
1670000000.0,-0.451393,0.814888
1677000000.0,-0.407289,0.835003
1684000000.0,-0.369078,0.848779
1691000000.0,-0.3245,0.871201
1698000000.0,-0.280961,0.886666
1705000000.0,-0.232473,0.899024
1712000000.0,-0.189287,0.907601
1719000000.0,-0.149345,0.910715
1726000000.0,-0.100487,0.915981
1733000000.0,-0.059863,0.91935
1740000000.0,-0.017291,0.917088
1747000000.0,0.02992,0.914453
1754000000.0,0.071864,0.90756
1761000000.0,0.115256,0.898988
1768000000.0,0.160433,0.890113
1775000000.0,0.198137,0.880202
1782000000.0,0.240258,0.866944
1789000000.0,0.283066,0.844345
1796000000.0,0.323689,0.829371
1803000000.0,0.306972,0.838804
1810000000.0,0.396009,0.785989
1817000000.0,0.441082,0.763299
1824000000.0,0.468276,0.746506
1831000000.0,0.511446,0.709846
1838000000.0,0.535845,0.67911
1845000000.0,0.561389,0.641337
1852000000.0,0.595761,0.613254
1859000000.0,0.608549,0.57804
1866000000.0,0.638849,0.537161
1873000000.0,0.663035,0.498737
1880000000.0,0.684145,0.452701
1887000000.0,0.701553,0.406047
1894000000.0,0.713179,0.367443
1901000000.0,0.725898,0.324776
1908000000.0,0.727426,0.275806
1915000000.0,0.737528,0.169161
1922000000.0,0.72392,0.191909
1929000000.0,0.712562,0.155778
1936000000.0,0.704096,0.115275
1943000000.0,0.691491,0.076462
1950000000.0,0.673074,0.051675
1957000000.0,0.653182,0.020638
1964000000.0,0.634836,-0.002133
1971000000.0,0.610551,-0.02564
1978000000.0,0.592442,-0.030486
1985000000.0,0.574874,-0.042152
1992000000.0,0.562008,-0.050376
1999000000.0,0.549795,-0.060654
2006000000.0,0.543509,-0.058108
2013000000.0,0.541579,-0.059654
2020000000.0,0.542639,-0.065781
2027000000.0,0.549404,-0.065931
2034000000.0,0.558347,-0.073316
2041000000.0,0.565075,-0.085973
2048000000.0,0.579716,-0.103916
2055000000.0,0.589766,-0.130091
2062000000.0,0.60048,-0.152552
2069000000.0,0.605672,-0.187098
2076000000.0,0.608768,-0.222818
2083000000.0,0.606111,-0.262948
2090000000.0,0.600368,-0.302763
2097000000.0,0.586373,-0.340413
2104000000.0,0.569614,-0.381812
2111000000.0,0.544379,-0.421052
2118000000.0,0.514037,-0.455696
2125000000.0,0.485595,-0.481893
2132000000.0,0.446521,-0.510866
2139000000.0,0.398738,-0.530002
2146000000.0,0.35621,-0.540007
2153000000.0,0.310363,-0.549443
2160000000.0,0.261182,-0.552112
2167000000.0,0.217803,-0.545049
2174000000.0,0.177474,-0.534145
2181000000.0,0.142796,-0.51633
2188000000.0,0.109146,-0.492781
2195000000.0,0.090006,-0.467855
2202000000.0,0.07336,-0.437535
2209000000.0,0.070392,-0.410349
2216000000.0,0.069058,-0.383781
2223000000.0,0.073825,-0.359303
2230000000.0,0.086555,-0.337374
2237000000.0,0.103775,-0.323862
2244000000.0,0.121887,-0.316213
2251000000.0,0.144308,-0.315549
2258000000.0,0.169008,-0.317824
2265000000.0,0.193254,-0.326505
2272000000.0,0.213491,-0.347007
2279000000.0,0.232998,-0.370205
2286000000.0,0.244525,-0.408559
2293000000.0,0.249167,-0.448508
2300000000.0,0.235767,-0.501469
2307000000.0,0.220842,-0.54802
2314000000.0,0.19816,-0.592446
2321000000.0,0.168975,-0.6333
2328000000.0,0.133429,-0.665421
2335000000.0,0.08501,-0.702133
2342000000.0,0.040351,-0.727971
2349000000.0,-0.000959,-0.741436
2356000000.0,-0.054347,-0.756454
2363000000.0,-0.102516,-0.765585
2370000000.0,-0.164458,-0.761569
2377000000.0,-0.20614,-0.761365
2384000000.0,-0.276767,-0.752091
2391000000.0,-0.326609,-0.743777
2398000000.0,-0.372833,-0.721115
2405000000.0,-0.422552,-0.701791
2412000000.0,-0.464158,-0.685466
2419000000.0,-0.506978,-0.654266
2426000000.0,-0.55238,-0.616018
2433000000.0,-0.586123,-0.587241
2440000000.0,-0.625152,-0.546317
2447000000.0,-0.652014,-0.515819
2454000000.0,-0.680999,-0.474482
2461000000.0,-0.70949,-0.429179
2468000000.0,-0.754992,-0.320179
2475000000.0,-0.746879,-0.34031
2482000000.0,-0.761622,-0.295621
2489000000.0,-0.771781,-0.24733
2496000000.0,-0.778628,-0.20395
2503000000.0,-0.77596,-0.164817
2510000000.0,-0.776738,-0.123743
2517000000.0,-0.771614,-0.075671
2524000000.0,-0.767874,-0.034401
2531000000.0,-0.760738,0.007683
2538000000.0,-0.74788,0.054897
2545000000.0,-0.738741,0.092784
2552000000.0,-0.717838,0.129165
2559000000.0,-0.697471,0.17094
2566000000.0,-0.676915,0.207942
2573000000.0,-0.647494,0.233167
2580000000.0,-0.627945,0.251972
2587000000.0,-0.59065,0.284133
2594000000.0,-0.568029,0.297528
2601000000.0,-0.542412,0.310306
2608000000.0,-0.515832,0.316179
2615000000.0,-0.488034,0.330267
2622000000.0,-0.467296,0.331575
2629000000.0,-0.439749,0.338332
2636000000.0,-0.413911,0.346506
2643000000.0,-0.407726,0.344916
2650000000.0,-0.39557,0.34225
2657000000.0,-0.387612,0.344954
2664000000.0,-0.384739,0.355781
2671000000.0,-0.373912,0.358543
2678000000.0,-0.373753,0.364426
2685000000.0,-0.389031,0.351541
2692000000.0,-0.365464,0.379697
2699000000.0,-0.364803,0.396723
2706000000.0,-0.35884,0.408084
2713000000.0,-0.354387,0.426063
2720000000.0,-0.347822,0.446124
2727000000.0,-0.340922,0.459351
2734000000.0,-0.331329,0.478646
2741000000.0,-0.325351,0.498075
2748000000.0,-0.305481,0.516981
2755000000.0,-0.291687,0.538581
2762000000.0,-0.271538,0.554923
2769000000.0,-0.247217,0.58058
2776000000.0,-0.215476,0.590191
2783000000.0,-0.178675,0.602713
2790000000.0,-0.145446,0.621761
2797000000.0,-0.108003,0.639907
2804000000.0,-0.080777,0.647392
2811000000.0,-0.053192,0.659918
2818000000.0,-0.017594,0.665471
2825000000.0,0.016328,0.669869
2832000000.0,0.054288,0.67003
2839000000.0,0.064639,0.671414
2846000000.0,0.100694,0.665989
2853000000.0,0.135405,0.657284
2860000000.0,0.1609,0.645722
2867000000.0,0.197564,0.629631
2874000000.0,0.22221,0.615702
2881000000.0,0.254044,0.601308
2888000000.0,0.288055,0.585552
2895000000.0,0.297838,0.572966
2902000000.0,0.325674,0.556742
2909000000.0,0.348534,0.53972
2916000000.0,0.370414,0.518564
2923000000.0,0.394899,0.498969
2930000000.0,0.40963,0.48084
2937000000.0,0.430471,0.461628
2944000000.0,0.445562,0.439403
2951000000.0,0.476432,0.397541
2958000000.0,0.473537,0.404298
2965000000.0,0.491752,0.380862
2972000000.0,0.498794,0.365458
2979000000.0,0.514445,0.336017
2986000000.0,0.532059,0.310748
2993000000.0,0.532981,0.291367
3000000000.0,0.550907,0.260337
