Frequency (Hz),Real Part,Imaginary Part
1600000000.0,-0.774269,0.535085
1607000000.0,-0.755015,0.56579
1614000000.0,-0.727098,0.600441
1621000000.0,-0.693699,0.640128
1628000000.0,-0.665771,0.667077
1635000000.0,-0.633426,0.696283
1642000000.0,-0.592742,0.726415
1649000000.0,-0.553988,0.756964
1656000000.0,-0.515681,0.778752
1663000000.0,-0.477324,0.801105
1670000000.0,-0.441988,0.818017
1677000000.0,-0.403996,0.839139
1684000000.0,-0.356772,0.857822
1691000000.0,-0.318072,0.871914
1698000000.0,-0.271471,0.885261
1705000000.0,-0.22649,0.899177
1712000000.0,-0.183066,0.908851
1719000000.0,-0.140572,0.916907
1726000000.0,-0.105443,0.918674
1733000000.0,-0.061954,0.919047
1740000000.0,-0.009331,0.921523
1747000000.0,0.029153,0.920326
1754000000.0,0.123854,0.900046
1761000000.0,0.120108,0.898021
1768000000.0,0.169252,0.885922
1775000000.0,0.199927,0.876388
1782000000.0,0.24451,0.864553
1789000000.0,0.284193,0.845784
1796000000.0,0.326618,0.827695
1803000000.0,0.364323,0.810255
1810000000.0,0.399505,0.786552
1817000000.0,0.44135,0.759547
1824000000.0,0.475512,0.741758
1831000000.0,0.512375,0.70562
1838000000.0,0.537282,0.680046
1845000000.0,0.571398,0.643849
1852000000.0,0.593639,0.615226
1859000000.0,0.609155,0.578908
1866000000.0,0.640365,0.543593
1873000000.0,0.663886,0.508045
1880000000.0,0.683141,0.45982
1887000000.0,0.705272,0.408253
1894000000.0,0.716018,0.372616
1901000000.0,0.72679,0.333038
1908000000.0,0.729847,0.286171
1915000000.0,0.730079,0.256057
1922000000.0,0.729777,0.205632
1929000000.0,0.728362,0.160965
1936000000.0,0.719738,0.118832
1943000000.0,0.710598,0.091485
1950000000.0,0.697851,0.060849
1957000000.0,0.67989,0.024392
1964000000.0,0.659811,-0.006475
1971000000.0,0.637395,-0.029023
1978000000.0,0.616938,-0.047531
1985000000.0,0.599156,-0.061689
1992000000.0,0.585045,-0.068376
1999000000.0,0.568348,-0.087874
2006000000.0,0.558765,-0.0879
2013000000.0,0.552431,-0.0947
2020000000.0,0.546611,-0.094495
2027000000.0,0.545011,-0.099454
2034000000.0,0.551173,-0.103028
2041000000.0,0.55313,-0.117732
2048000000.0,0.56336,-0.124952
2055000000.0,0.570792,-0.146745
2062000000.0,0.579483,-0.172262
2069000000.0,0.585349,-0.198044
2076000000.0,0.585454,-0.230247
2083000000.0,0.585102,-0.264108
2090000000.0,0.579516,-0.304821
2097000000.0,0.570229,-0.339013
2104000000.0,0.557172,-0.376305
2111000000.0,0.536189,-0.409573
2118000000.0,0.509419,-0.448365
2125000000.0,0.479409,-0.480549
2132000000.0,0.426322,-0.518033
2139000000.0,0.403175,-0.524796
2146000000.0,0.365646,-0.535944
2153000000.0,0.315213,-0.549549
2160000000.0,0.27805,-0.552355
2167000000.0,0.232186,-0.550522
2174000000.0,0.196444,-0.543824
2181000000.0,0.149285,-0.533637
2188000000.0,0.118131,-0.517886
2195000000.0,0.093806,-0.491139
2202000000.0,0.079765,-0.466126
2209000000.0,0.062836,-0.441472
2216000000.0,0.058447,-0.415134
2223000000.0,0.05512,-0.390006
2230000000.0,0.064309,-0.366855
2237000000.0,0.075013,-0.349071
2244000000.0,0.098054,-0.335612
2251000000.0,0.113734,-0.331878
2258000000.0,0.136685,-0.33199
2265000000.0,0.164004,-0.33952
2272000000.0,0.180145,-0.354937
2279000000.0,0.204407,-0.376308
2286000000.0,0.213446,-0.413586
2293000000.0,0.206088,-0.459489
2300000000.0,0.205571,-0.506773
2307000000.0,0.186633,-0.553874
2314000000.0,0.165857,-0.595848
2321000000.0,0.125641,-0.636311
2328000000.0,0.103345,-0.662053
2335000000.0,0.036188,-0.695216
2342000000.0,0.001388,-0.715012
2349000000.0,-0.068112,-0.725791
2356000000.0,-0.083574,-0.73595
2363000000.0,-0.158563,-0.734658
2370000000.0,-0.186252,-0.735325
2377000000.0,-0.250435,-0.719744
2384000000.0,-0.28351,-0.716487
2391000000.0,-0.349719,-0.693456
2398000000.0,-0.400536,-0.664378
2405000000.0,-0.436698,-0.641875
2412000000.0,-0.490029,-0.617796
2419000000.0,-0.524851,-0.592681
2426000000.0,-0.552392,-0.556962
2433000000.0,-0.587058,-0.526187
2440000000.0,-0.622119,-0.484178
2447000000.0,-0.65092,-0.438412
2454000000.0,-0.669744,-0.396872
2461000000.0,-0.685982,-0.363888
2468000000.0,-0.701473,-0.315026
2475000000.0,-0.715595,-0.269664
2482000000.0,-0.721117,-0.223437
2489000000.0,-0.72733,-0.173583
2496000000.0,-0.728183,-0.13
2503000000.0,-0.723274,-0.092208
2510000000.0,-0.709212,-0.061968
2517000000.0,-0.697469,-0.01933
2524000000.0,-0.685354,0.026065
2531000000.0,-0.666598,0.058535
2538000000.0,-0.652631,0.087342
2545000000.0,-0.626521,0.114122
2552000000.0,-0.605775,0.135111
2559000000.0,-0.580999,0.165788
2566000000.0,-0.559978,0.177048
2573000000.0,-0.534802,0.193721
2580000000.0,-0.514762,0.19967
2587000000.0,-0.500253,0.200934
2594000000.0,-0.48351,0.215842
2601000000.0,-0.467567,0.211723
2608000000.0,-0.459619,0.218036
2615000000.0,-0.45153,0.221923
2622000000.0,-0.445005,0.227458
2629000000.0,-0.437107,0.230305
2636000000.0,-0.431149,0.243504
2643000000.0,-0.432137,0.244644
2650000000.0,-0.433971,0.254705
2657000000.0,-0.431732,0.26947
2664000000.0,-0.433731,0.285827
2671000000.0,-0.43273,0.298381
2678000000.0,-0.429907,0.314517
2685000000.0,-0.428339,0.332583
2692000000.0,-0.423861,0.358182
2699000000.0,-0.416632,0.377076
2706000000.0,-0.412625,0.398743
2713000000.0,-0.410179,0.419268
2720000000.0,-0.400609,0.441485
2727000000.0,-0.387334,0.463427
2734000000.0,-0.371698,0.486242
2741000000.0,-0.359791,0.510545
2748000000.0,-0.337912,0.526556
2755000000.0,-0.320718,0.554716
2762000000.0,-0.306202,0.569065
2769000000.0,-0.264409,0.590384
2776000000.0,-0.224172,0.611839
2783000000.0,-0.198954,0.62164
2790000000.0,-0.150661,0.633309
2797000000.0,-0.121447,0.653223
2804000000.0,-0.088996,0.663424
2811000000.0,-0.04903,0.67427
2818000000.0,-0.017953,0.677264
2825000000.0,0.02036,0.683141
2832000000.0,0.041448,0.677618
2839000000.0,-0.002361,0.684398
2846000000.0,0.089716,0.672845
2853000000.0,0.129701,0.662923
2860000000.0,0.160052,0.643973
2867000000.0,0.190734,0.632453
2874000000.0,0.233471,0.609237
2881000000.0,0.252148,0.596845
2888000000.0,0.278451,0.58682
2895000000.0,0.300639,0.568239
2902000000.0,0.319362,0.55706
2909000000.0,0.352225,0.53225
2916000000.0,0.367717,0.515298
2923000000.0,0.389499,0.495862
2930000000.0,0.404306,0.480248
2937000000.0,0.423929,0.460257
2944000000.0,0.443144,0.440951
2951000000.0,0.452084,0.427368
2958000000.0,0.471368,0.400197
2965000000.0,0.485465,0.377712
2972000000.0,0.491075,0.364663
2979000000.0,0.51189,0.334224
2986000000.0,0.519283,0.310818
2993000000.0,0.53264,0.286303
3000000000.0,0.54404,0.264082
