Frequency (Hz),Real Part,Imaginary Part
1600000000.0,-0.780521,0.531723
1607000000.0,-0.75501,0.567629
1614000000.0,-0.728232,0.603264
1621000000.0,-0.695166,0.636206
1628000000.0,-0.665381,0.66899
1635000000.0,-0.634586,0.695963
1642000000.0,-0.59394,0.723161
1649000000.0,-0.558324,0.74942
1656000000.0,-0.483376,0.792206
1663000000.0,-0.481963,0.800601
1670000000.0,-0.442922,0.819346
1677000000.0,-0.402019,0.842128
1684000000.0,-0.363985,0.856547
1691000000.0,-0.319565,0.871689
1698000000.0,-0.28074,0.885373
1705000000.0,-0.23738,0.894317
1712000000.0,-0.192814,0.906865
1719000000.0,-0.145581,0.91747
1726000000.0,-0.102224,0.919933
1733000000.0,-0.056236,0.920424
1740000000.0,-0.014489,0.921565
1747000000.0,0.026823,0.913641
1754000000.0,0.069281,0.912625
1761000000.0,0.115451,0.901002
1768000000.0,0.156176,0.891551
1775000000.0,0.201086,0.876048
1782000000.0,0.241234,0.868116
1789000000.0,0.284428,0.843824
1796000000.0,0.322462,0.829562
1803000000.0,0.390481,0.794627
1810000000.0,0.401232,0.787624
1817000000.0,0.438245,0.7652
1824000000.0,0.468283,0.74853
1831000000.0,0.510051,0.708327
1838000000.0,0.535827,0.684411
1845000000.0,0.563229,0.655402
1852000000.0,0.592043,0.608386
1859000000.0,0.616472,0.579997
1866000000.0,0.639755,0.55054
1873000000.0,0.65863,0.508907
1880000000.0,0.681964,0.464089
1887000000.0,0.705413,0.417095
1894000000.0,0.719756,0.37071
1901000000.0,0.730872,0.331396
1908000000.0,0.733406,0.284955
1915000000.0,0.732917,0.249587
1922000000.0,0.732048,0.205684
1929000000.0,0.729804,0.1667
1936000000.0,0.724688,0.122161
1943000000.0,0.711092,0.079067
1950000000.0,0.697048,0.055418
1957000000.0,0.678469,0.024919
1964000000.0,0.656233,-0.000114
1971000000.0,0.634829,-0.025657
1978000000.0,0.613157,-0.040514
1985000000.0,0.595263,-0.0552
1992000000.0,0.581007,-0.067069
1999000000.0,0.5677,-0.074863
2006000000.0,0.555427,-0.077852
2013000000.0,0.549186,-0.087992
2020000000.0,0.546092,-0.089222
2027000000.0,0.548833,-0.091622
2034000000.0,0.554791,-0.095837
2041000000.0,0.561907,-0.103457
2048000000.0,0.569582,-0.122313
2055000000.0,0.578071,-0.141762
2062000000.0,0.590097,-0.162968
2069000000.0,0.59557,-0.191939
2076000000.0,0.599212,-0.226153
2083000000.0,0.596843,-0.261545
2090000000.0,0.593853,-0.301331
2097000000.0,0.582656,-0.33674
2104000000.0,0.564613,-0.376587
2111000000.0,0.539331,-0.417498
2118000000.0,0.515493,-0.444578
2125000000.0,0.483751,-0.481879
2132000000.0,0.449574,-0.505197
2139000000.0,0.408458,-0.526335
2146000000.0,0.362271,-0.538566
2153000000.0,0.327072,-0.545361
2160000000.0,0.281912,-0.548888
2167000000.0,0.238749,-0.544529
2174000000.0,0.198608,-0.538575
2181000000.0,0.167234,-0.522295
2188000000.0,0.137854,-0.504295
2195000000.0,0.115595,-0.48343
2202000000.0,0.104596,-0.463254
2209000000.0,0.097897,-0.441614
2216000000.0,0.096637,-0.423943
2223000000.0,0.099219,-0.408967
2230000000.0,0.110388,-0.400029
2237000000.0,0.116726,-0.396934
2244000000.0,0.128677,-0.398678
2251000000.0,0.134229,-0.406685
2258000000.0,0.144069,-0.415962
2265000000.0,0.142136,-0.429529
2272000000.0,0.138773,-0.444269
2279000000.0,0.133274,-0.460593
2286000000.0,0.122826,-0.480082
2293000000.0,0.098552,-0.50074
2300000000.0,0.073992,-0.519603
2307000000.0,0.057359,-0.535643
2314000000.0,0.030386,-0.540737
2321000000.0,0.023733,-0.55019
2328000000.0,0.002143,-0.551411
2335000000.0,-0.01094,-0.560569
2342000000.0,-0.035623,-0.570039
2349000000.0,-0.044321,-0.58654
2356000000.0,-0.067689,-0.59091
2363000000.0,-0.08673,-0.60482
2370000000.0,-0.111733,-0.621766
2377000000.0,-0.141662,-0.633081
2384000000.0,-0.186227,-0.642508
2391000000.0,-0.230622,-0.648504
2398000000.0,-0.264569,-0.655567
2405000000.0,-0.315897,-0.657082
2412000000.0,-0.360538,-0.657916
2419000000.0,-0.408083,-0.637962
2426000000.0,-0.464402,-0.612894
2433000000.0,-0.503253,-0.594152
2440000000.0,-0.546813,-0.566417
2447000000.0,-0.588062,-0.540186
2454000000.0,-0.619735,-0.495868
2461000000.0,-0.657701,-0.457239
2468000000.0,-0.683535,-0.422049
2475000000.0,-0.701352,-0.376476
2482000000.0,-0.722097,-0.334232
2489000000.0,-0.736646,-0.288038
2496000000.0,-0.757374,-0.241395
2503000000.0,-0.761349,-0.209738
2510000000.0,-0.762534,-0.164582
2517000000.0,-0.764692,-0.121902
2524000000.0,-0.763542,-0.073629
2531000000.0,-0.763039,-0.040208
2538000000.0,-0.758585,0.018494
2545000000.0,-0.750596,0.04977
2552000000.0,-0.738465,0.09929
2559000000.0,-0.726381,0.131164
2566000000.0,-0.706129,0.179991
2573000000.0,-0.685156,0.213374
2580000000.0,-0.66333,0.246662
2587000000.0,-0.639045,0.269131
2594000000.0,-0.61317,0.295513
2601000000.0,-0.580705,0.317433
2608000000.0,-0.550083,0.338903
2615000000.0,-0.514639,0.356057
2622000000.0,-0.487164,0.363289
2629000000.0,-0.454356,0.376169
2636000000.0,-0.426561,0.378616
2643000000.0,-0.412807,0.377021
2650000000.0,-0.390658,0.375682
2657000000.0,-0.379084,0.37712
2664000000.0,-0.368825,0.380439
2671000000.0,-0.362546,0.370781
2678000000.0,-0.348876,0.383363
2685000000.0,-0.342147,0.390654
2692000000.0,-0.331936,0.399461
2699000000.0,-0.33015,0.408421
2706000000.0,-0.330511,0.414112
2713000000.0,-0.331766,0.421484
2720000000.0,-0.326112,0.441705
2727000000.0,-0.33102,0.446782
2734000000.0,-0.308861,0.474866
2741000000.0,-0.304787,0.48904
2748000000.0,-0.278438,0.506023
2755000000.0,-0.275924,0.521232
2762000000.0,-0.257137,0.543124
2769000000.0,-0.234968,0.557551
2776000000.0,-0.204523,0.575716
2783000000.0,-0.170773,0.5902
2790000000.0,-0.144088,0.604556
2797000000.0,-0.108316,0.620695
2804000000.0,-0.079497,0.634406
2811000000.0,-0.048954,0.64732
2818000000.0,-0.016448,0.651804
2825000000.0,0.018638,0.656835
2832000000.0,0.045204,0.657757
2839000000.0,0.070989,0.656723
2846000000.0,0.097565,0.653937
2853000000.0,0.125741,0.648367
2860000000.0,0.158316,0.639495
2867000000.0,0.188905,0.625048
2874000000.0,0.227617,0.611518
2881000000.0,0.248811,0.593107
2888000000.0,0.274675,0.578125
2895000000.0,0.301299,0.560845
2902000000.0,0.317108,0.55173
2909000000.0,0.346482,0.53099
2916000000.0,0.36683,0.513084
2923000000.0,0.388564,0.492838
2930000000.0,0.399204,0.481003
2937000000.0,0.422878,0.455446
2944000000.0,0.440475,0.438449
2951000000.0,0.450079,0.424601
2958000000.0,0.477672,0.386414
2965000000.0,0.484498,0.378255
2972000000.0,0.498123,0.355339
2979000000.0,0.508233,0.336803
2986000000.0,0.519341,0.314619
2993000000.0,0.531839,0.287194
3000000000.0,0.543484,0.265513
